##TITLE=1-Bromo-1-chloroethane
##JCAMP-DX=4.24
##DATA TYPE=INFRARED SPECTRUM
##ORIGIN=EPA-IR VAPOR PHASE LIBRARY
##OWNER=SRD/NIST
Collection (C) 2009 copyright by the U.S. Secretary of Commerce
on behalf of the United States of America. All rights reserved.
##CAS REGISTRY NO=593-96-4
##MOLFORM=C 2 H 4 Br Cl
##$NIST SOURCE=MSDC-IR
##STATE=gas
##XUNITS=1/CM
##YUNITS=ABSORBANCE
##XFACTOR=1.
##YFACTOR=0.001
##DELTAX=1.929
##FIRSTX=549.8
##LASTX=4000.8
##FIRSTY=3.948
##MAXX=4000.75
##MINX=549.766
##MAXY=0.065448
##MINY=0
##NPOINTS=1790
##XYDATA=(X++(Y..Y))
549.766 3.948 5.048 6.088 7.468 8.988 10.418 12.008 13.698 15.408 16.858
569.056 17.698 18.288 18.718 19.118 20.738 21.408 20.138 19.448 18.958 16.748
588.346 13.188 8.898 5.678 4.128 3.138 2.818 2.518 2.128 2.058 1.858
607.636 1.5751 1.5169 1.4194 1.1853 0.89679 0.83959 1.0336 0.9617 0.9552 1.1175
626.926 1.1545 1.3021 1.334 1.3329 1.5405 1.938 2.348 2.878 3.698 4.488
646.216 5.488 6.668 7.958 9.298 10.898 12.908 15.018 17.898 21.498 25.738
665.506 30.928 36.768 42.868 48.508 53.638 57.978 61.238 63.498 64.898 65.448
684.796 64.628 63.758 63.178 61.298 58.508 54.568 48.618 40.808 32.048 23.678
704.086 16.678 11.538 8.008 5.608 4.128 3.218 2.638 2.098 1.7429 1.492
723.376 1.4065 1.4361 1.2685 1.1466 1.1142 1.0373 0.9756 1.066 1.1387 1.0139
742.666 0.90214 0.85156 0.7439 0.63 0.627 0.621 0.664 0.8052 0.7441 0.64
761.956 0.665 0.7558 0.599 0.492 0.593 0.576 0.549 0.551 0.535 0.573
781.246 0.551 0.458 0.588 0.635 0.535 0.542 0.573 0.608 0.7221 0.68
800.536 0.599 0.674 0.701 0.7517 0.672 0.7429 0.84358 0.637 0.559 0.7471
819.826 0.81557 0.7547 0.7215 0.686 0.708 0.697 0.685 0.652 0.7259 0.84167
839.116 0.7857 0.65 0.655 0.565 0.451 0.47 0.5 0.588 0.623 0.609
858.406 0.592 0.646 0.707 0.658 0.648 0.683 0.668 0.7396 0.7191 0.617
877.696 0.634 0.7 0.693 0.637 0.7594 0.824146 0.707 0.7 0.7756 0.695
896.986 0.658 0.781 0.88935 0.81103 0.689 0.747 0.807 0.7509 0.69 0.714
916.276 0.7743 0.7824 0.7717 0.86486 0.87024 0.87292 1.001 1.0717 1.1547 1.2904
935.566 1.3324 1.4243 1.6002 1.7536 1.958 2.248 2.598 2.988 3.368 3.678
954.856 4.108 4.518 4.868 5.348 5.668 5.988 6.268 6.478 6.808 7.088
974.146 7.218 7.168 7.018 6.948 6.928 6.868 6.688 6.388 5.918 5.298
993.436 4.728 4.168 3.678 3.188 2.778 2.498 2.248 2.008 1.7689 1.602
1012.726 1.5277 1.4888 1.4564 1.5134 1.6618 1.888 2.288 3.028 4.088 5.398
1032.016 7.348 10.058 13.378 17.048 20.858 24.218 26.518 27.618 28.078 28.378
1051.306 29.468 29.638 26.408 26.158 29.098 29.418 26.668 21.908 16.928 12.758
1070.596 9.758 7.778 6.568 5.698 5.068 4.728 4.398 4.048 3.738 3.408
1089.886 2.988 2.498 2.058 1.7253 1.4842 1.2057 1.1013 1.0206 0.9594 0.9829
1109.176 0.8068 0.666 0.7198 0.709 0.687 0.88965 0.90041 0.83345 0.9656 1.0296
1128.467 1.0882 1.1219 1.1927 1.2647 1.2594 1.2495 1.3889 1.4829 1.464 1.5747
1147.757 1.6156 1.593 1.6217 1.5931 1.6594 1.868 2.008 2.148 2.418 2.878
1167.047 3.588 4.608 6.098 8.048 10.598 13.828 17.648 21.948 26.558 31.198
1186.337 34.898 37.088 38.208 39.008 40.328 41.248 40.538 37.938 37.798 39.848
1205.627 38.498 33.428 26.368 19.348 13.658 9.768 7.348 5.988 5.348 4.988
1224.917 4.678 4.428 4.168 4.018 3.838 3.738 3.808 3.968 4.138 4.228
1244.207 4.348 4.598 4.808 5.098 5.568 6.178 6.888 7.498 8.088 8.618
1263.497 8.948 8.878 8.548 8.068 7.398 6.848 6.708 6.778 6.838 6.578
1282.787 5.948 5.198 4.498 3.848 3.248 2.778 2.348 1.948 1.6919 1.4835
1302.077 1.2501 1.061 0.9213 0.85301 0.7853 0.7674 0.7623 0.689 0.671 0.7236
1321.367 0.7682 0.81307 0.827449 0.85579 0.88552 0.8885 0.959 1.0346 1.153 1.2388
1340.657 1.2903 1.4617 1.5958 1.7013 1.828 2.018 2.228 2.458 2.658 2.818
1359.947 3.088 3.368 3.698 4.088 4.548 5.038 5.478 5.918 6.228 6.448
1379.237 6.388 6.248 6.518 6.408 6.668 7.528 7.728 7.328 6.678 5.918
1398.527 5.138 4.498 3.978 3.618 3.308 3.058 2.848 2.648 2.618 2.768
1417.817 3.028 3.308 3.568 3.898 4.258 4.628 5.028 5.288 5.538 5.958
1437.107 6.378 6.728 7.248 7.818 7.548 6.638 6.168 6.258 6.318 5.858
1456.397 5.368 5.048 4.628 4.198 3.828 3.458 3.068 2.738 2.488 2.208
1475.687 1.928 1.6669 1.4708 1.2748 1.1017 1.0272 0.9378 0.7978 0.7577 0.706
1494.977 0.643 0.633 0.579 0.502 0.438 0.505 0.555 0.421 0.366 0.395
1514.267 0.415 0.441 0.432 0.414 0.396 0.387 0.441 0.474 0.419 0.387
1533.557 0.398 0.383 0.471 0.585 0.546 0.456 0.389 0.413 0.43 0.419
1552.847 0.433 0.474 0.582 0.651 0.568 0.428 0.415 0.452 0.441 0.429
1572.137 0.37 0.378 0.399 0.366 0.317 0.281 0.273 0.243 0.273 0.335
1591.427 0.368 0.419 0.421 0.348 0.32 0.295 0.304 0.352 0.365 0.339
1610.717 0.325 0.365 0.438 0.511 0.444 0.378 0.421 0.469 0.482 0.456
1630.007 0.417 0.436 0.486 0.504 0.458 0.443 0.478 0.508 0.581 0.574
1649.297 0.529 0.64 0.7445 0.594 0.496 0.541 0.5 0.524 0.539 0.52
1668.587 0.529 0.521 0.563 0.563 0.516 0.541 0.511 0.476 0.58 0.581
1687.877 0.537 0.528 0.5 0.557 0.664 0.634 0.666 0.632 0.536 0.531
1707.167 0.511 0.548 0.545 0.491 0.499 0.524 0.47 0.434 0.413 0.362
1726.457 0.372 0.4 0.375 0.4 0.451 0.444 0.438 0.443 0.435 0.417
1745.747 0.413 0.429 0.399 0.378 0.382 0.361 0.366 0.384 0.337 0.307
1765.037 0.347 0.356 0.329 0.327 0.405 0.384 0.313 0.327 0.335 0.3
1784.327 0.301 0.287 0.28 0.305 0.27 0.284 0.294 0.264 0.238 0.245
1803.617 0.287 0.266 0.246 0.306 0.304 0.27 0.302 0.331 0.331 0.327
1822.907 0.31 0.298 0.322 0.372 0.355 0.252 0.247 0.297 0.308 0.329
1842.197 0.345 0.359 0.364 0.326 0.294 0.263 0.267 0.33 0.332 0.309
1861.487 0.292 0.303 0.294 0.282 0.319 0.308 0.301 0.282 0.272 0.322
1880.777 0.285 0.233 0.287 0.338 0.345 0.324 0.296 0.311 0.274 0.242
1900.067 0.264 0.246 0.291 0.323 0.351 0.305 0.267 0.338 0.354 0.348
1919.357 0.326 0.341 0.406 0.403 0.362 0.389 0.429 0.437 0.45 0.447
1938.647 0.448 0.449 0.454 0.495 0.496 0.485 0.445 0.462 0.489 0.457
1957.937 0.418 0.355 0.356 0.417 0.439 0.379 0.38 0.363 0.362 0.342
1977.227 0.28 0.305 0.28 0.281 0.293 0.272 0.285 0.301 0.333 0.313
1996.517 0.29 0.301 0.275 0.267 0.309 0.342 0.34 0.33 0.349 0.389
2015.807 0.362 0.34 0.358 0.363 0.382 0.367 0.342 0.364 0.386 0.385
2035.097 0.398 0.438 0.458 0.43 0.415 0.417 0.382 0.358 0.36 0.39
2054.387 0.445 0.442 0.428 0.426 0.445 0.415 0.342 0.343 0.333 0.307
2073.677 0.288 0.309 0.331 0.304 0.251 0.25 0.281 0.32 0.328 0.299
2092.967 0.307 0.275 0.262 0.3 0.321 0.344 0.316 0.277 0.301 0.336
2112.257 0.339 0.375 0.399 0.386 0.382 0.363 0.329 0.309 0.389 0.44
2131.547 0.36 0.334 0.349 0.339 0.35 0.375 0.415 0.437 0.396 0.334
2150.837 0.347 0.397 0.426 0.443 0.453 0.484 0.454 0.399 0.391 0.345
2170.127 0.318 0.336 0.335 0.372 0.416 0.369 0.373 0.407 0.366 0.318
2189.417 0.306 0.313 0.307 0.31 0.274 0.252 0.278 0.287 0.256 0.285
2208.707 0.348 0.311 0.31 0.339 0.345 0.347 0.343 0.341 0.345 0.354
2227.997 0.389 0.393 0.393 0.397 0.36 0.352 0.371 0.391 0.401 0.418
2247.287 0.419 0.376 0.328 0.351 0.398 0.339 0.363 0.426 0.364 0.32
2266.577 0.304 0.305 0.318 0.313 0.344 0.351 0.289 0.328 0.322 0.284
2285.868 0.328 0.312 0.335 0.368 0.324 0.315 0.379 0.397 0.412 0.402
2305.158 0.334 0.359 0.386 0.442 0.508 0.514 0.526 0.565 0.56 0.495
2324.448 0.537 0.592 0.559 0.567 0.597 0.635 0.648 0.638 0.585 0.557
2343.738 0.588 0.615 0.649 0.669 0.651 0.669 0.7 0.669 0.642 0.667
2363.028 0.7361 0.709 0.683 0.653 0.631 0.631 0.592 0.59 0.579 0.559
2382.318 0.559 0.546 0.551 0.544 0.478 0.478 0.501 0.497 0.504 0.463
2401.608 0.419 0.444 0.479 0.504 0.536 0.508 0.459 0.46 0.503 0.536
2420.898 0.581 0.642 0.643 0.655 0.674 0.693 0.724 0.713 0.7196 0.7238
2440.188 0.7442 0.7982 0.84441 0.84881 0.7877 0.7556 0.7995 0.7944 0.7534 0.799
2459.478 0.85332 0.87398 0.83954 0.81261 0.7647 0.704 0.678 0.644 0.581 0.567
2478.768 0.605 0.582 0.516 0.507 0.601 0.648 0.585 0.548 0.555 0.546
2498.058 0.525 0.52 0.544 0.539 0.547 0.565 0.543 0.526 0.528 0.52
2517.348 0.478 0.451 0.505 0.536 0.582 0.643 0.597 0.514 0.464 0.478
2536.638 0.571 0.571 0.523 0.513 0.496 0.509 0.466 0.436 0.432 0.433
2555.928 0.408 0.415 0.411 0.366 0.421 0.455 0.43 0.401 0.4 0.389
2575.218 0.33 0.279 0.271 0.29 0.347 0.402 0.397 0.321 0.258 0.28
2594.508 0.34 0.365 0.399 0.425 0.406 0.382 0.368 0.364 0.391 0.394
2613.798 0.41 0.442 0.391 0.375 0.39 0.397 0.377 0.384 0.425 0.421
2633.088 0.406 0.475 0.502 0.457 0.45 0.463 0.421 0.407 0.419 0.385
2652.378 0.38 0.393 0.456 0.464 0.401 0.407 0.417 0.483 0.549 0.491
2671.668 0.453 0.456 0.354 0.316 0.374 0.407 0.43 0.483 0.493 0.375
2690.958 0.354 0.44 0.442 0.437 0.509 0.468 0.396 0.419 0.421 0.475
2710.248 0.581 0.543 0.514 0.508 0.475 0.466 0.414 0.408 0.431 0.505
2729.538 0.505 0.485 0.505 0.455 0.392 0.417 0.511 0.522 0.433 0.371
2748.828 0.458 0.536 0.519 0.522 0.538 0.541 0.478 0.485 0.547 0.536
2768.118 0.544 0.544 0.486 0.384 0.368 0.416 0.422 0.437 0.487 0.503
2787.408 0.476 0.515 0.538 0.532 0.528 0.466 0.426 0.486 0.518 0.481
2806.698 0.556 0.582 0.571 0.577 0.66 0.7243 0.674 0.679 0.708 0.7203
2825.988 0.672 0.7266 0.81228 0.8071 0.827805 0.7878 0.653 0.664 0.7309 0.823307
2845.278 0.81496 0.81669 0.9469 0.9518 1.0365 1.1438 1.209 1.3332 1.4755 1.6303
2864.568 1.6916 1.6768 1.6083 1.5917 1.77 1.878 1.968 2.038 1.998 1.958
2883.858 1.848 1.7418 1.7437 1.7127 1.6427 1.6023 1.5366 1.4856 1.5131 1.5323
2903.148 1.478 1.4442 1.4803 1.5539 1.6803 1.815 1.908 2.078 2.408 2.798
2922.438 3.288 3.908 4.518 5.118 5.698 5.988 5.948 5.608 5.068 4.698
2941.728 4.768 5.388 6.018 6.258 5.998 5.308 4.668 4.048 3.388 2.988
2961.018 2.738 2.588 2.608 2.728 3.028 3.618 4.438 5.378 6.508 7.628
2980.308 8.388 8.698 8.498 8.448 9.808 10.618 9.158 8.898 10.358 11.368
2999.598 10.698 8.888 7.578 6.738 6.118 5.608 5.248 4.998 4.788 4.828
3018.888 5.308 5.088 4.118 3.798 3.638 3.328 3.078 2.808 2.508 2.198
3038.178 1.978 1.7256 1.4775 1.3181 1.1415 0.9826 0.84713 0.7542 0.7921 0.699
3057.468 0.519 0.536 0.584 0.56 0.567 0.524 0.565 0.426 0.303 0.372
3076.758 0.419 0.477 0.393 0.328 0.318 0.432 0.52 0.569 0.524 0.462
3096.048 0.525 0.498 0.422 0.368 0.434 0.482 0.537 0.568 0.514 0.426
3115.338 0.39 0.372 0.342 0.441 0.44 0.347 0.314 0.327 0.424 0.472
3134.628 0.359 0.346 0.479 0.476 0.38 0.402 0.412 0.325 0.304 0.333
3153.918 0.361 0.378 0.381 0.369 0.344 0.27 0.308 0.392 0.316 0.381
3173.208 0.498 0.405 0.383 0.426 0.417 0.391 0.512 0.609 0.556 0.586
3192.498 0.561 0.527 0.504 0.491 0.414 0.268 0.21 0.313 0.423 0.485
3211.788 0.598 0.514 0.422 0.477 0.484 0.472 0.498 0.461 0.403 0.499
3231.078 0.562 0.45 0.538 0.613 0.572 0.529 0.55 0.61 0.521 0.44
3250.368 0.429 0.496 0.53 0.572 0.669 0.7365 0.8036 0.7847 0.7936 0.7734
3269.658 0.639 0.628 0.628 0.609 0.44 0.461 0.674 0.635 0.645 0.7477
3288.948 0.682 0.396 0.369 0.516 0.361 0.328 0.347 0.341 0.377 0.332
3308.238 0.29 0.278 0.248 0.182 0.204 0.282 0.369 0.391 0.364 0.274
3327.528 0.264 0.293 0.286 0.28 0.304 0.361 0.324 0.317 0.443 0.469
3346.818 0.37 0.324 0.368 0.507 0.506 0.417 0.373 0.337 0.321 0.314
3366.108 0.373 0.342 0.283 0.414 0.452 0.407 0.359 0.341 0.329 0.325
3385.398 0.388 0.27 0.247 0.291 0.268 0.452 0.46 0.455 0.415 0.358
3404.688 0.355 0.242 0.397 0.504 0.342 0.27 0.281 0.36 0.542 0.583
3423.978 0.493 0.325 0.251 0.233 0.376 0.435 0.287 0.244 0.198 0.164
3443.269 0.161 0.201 0.246 0.276 0.243 0.127 0.204 0.261 0.221 0.305
3462.559 0.254 0.343 0.377 0.267 0.286 0.296 0.334 0.217 0.243 0.401
3481.849 0.348 0.199 0.165 0.214 0.302 0.364 0.314 0.335 0.417 0.334
3501.139 0.175 0.237 0.281 0.271 0.29 0.168 0.157 0.331 0.221 0.008
3520.429 0.169 0.347 0.416 0.393 0.361 0.419 0.304 0.222 0.128 0
3539.719 0.119 0.334 0.434 0.379 0.351 0.357 0.315 0.151 0.234 0.34
3559.009 0.194 0.259 0.342 0.394 0.402 0.397 0.395 0.343 0.37 0.401
3578.299 0.245 0.251 0.436 0.361 0.336 0.32 0.278 0.395 0.441 0.424
3597.589 0.342 0.384 0.461 0.364 0.332 0.43 0.315 0.273 0.422 0.403
3616.879 0.493 0.537 0.365 0.29 0.374 0.385 0.517 0.489 0.349 0.373
3636.169 0.387 0.398 0.331 0.332 0.302 0.205 0.223 0.252 0.288 0.326
3655.459 0.312 0.264 0.192 0.222 0.362 0.374 0.327 0.449 0.418 0.292
3674.749 0.362 0.464 0.438 0.439 0.476 0.456 0.446 0.407 0.338 0.391
3694.039 0.348 0.291 0.36 0.424 0.406 0.351 0.346 0.347 0.36 0.358
3713.329 0.33 0.312 0.536 0.583 0.371 0.368 0.388 0.273 0.252 0.391
3732.619 0.326 0.315 0.408 0.371 0.339 0.237 0.297 0.458 0.464 0.466
3751.909 0.337 0.338 0.474 0.423 0.387 0.255 0.21 0.166 0.175 0.389
3771.199 0.395 0.329 0.283 0.241 0.236 0.232 0.309 0.31 0.191 0.269
3790.489 0.34 0.268 0.245 0.218 0.265 0.379 0.412 0.303 0.234 0.222
3809.779 0.206 0.252 0.34 0.383 0.39 0.327 0.272 0.425 0.488 0.485
3829.069 0.508 0.495 0.401 0.374 0.433 0.486 0.5 0.413 0.471 0.509
3848.359 0.527 0.638 0.597 0.56 0.438 0.241 0.238 0.361 0.435 0.497
3867.649 0.484 0.363 0.323 0.269 0.348 0.4 0.321 0.265 0.378 0.501
3886.939 0.373 0.326 0.384 0.392 0.322 0.398 0.505 0.426 0.411 0.522
3906.229 0.607 0.524 0.458 0.46 0.385 0.514 0.552 0.4 0.443 0.41
3925.519 0.357 0.274 0.218 0.308 0.362 0.347 0.354 0.438 0.445 0.388
3944.809 0.388 0.449 0.448 0.416 0.382 0.386 0.471 0.592 0.63 0.7205
3964.099 0.601 0.448 0.526 0.438 0.417 0.531 0.65 0.573 0.527 0.529
3983.389 0.569 0.661 0.577 0.601 0.714 0.711 0.583 0.63 0.7699 0.7252
##END=
