##TITLE=3-Pentyn-1-ol
##JCAMP-DX=4.24
##DATA TYPE=INFRARED SPECTRUM
##ORIGIN=NIST Mass Spectrometry Data Center
##OWNER=NIST Standard Reference Data Program
Collection (C) 2009 copyright by the U.S. Secretary of Commerce
on behalf of the United States of America. All rights reserved.
##CAS REGISTRY NO=10229-10-4
##MOLFORM=C 5 H 8 O
##$NIST SOURCE=MSDC-IR
##SPECTROMETER/DATA SYSTEM=HP-GC/MS/IRD
##STATE=gas
##XUNITS=1/CM
##YUNITS=ABSORBANCE
##XFACTOR=1.0
##YFACTOR=0.000001800
##DELTAX=4.0
##FIRSTX=550.0
##LASTX=3846.0
##FIRSTY=0.001051
##MAXX=3846
##MINX=550
##MAXY=0.018
##MINY=0
##NPOINTS=825
##XYDATA=(X++(Y..Y))
550.0 584 444 408 396 340 384 357 285 222 188
590.0 224 241 219 214 198 180 206 193 157 210
630.0 218 162 112 96 120 65 8 24 51 73
670.0 133 160 136 156 160 163 121 77 122 151
710.0 115 112 141 117 81 80 73 72 105 99
750.0 91 86 92 112 123 145 161 157 147 150
790.0 174 180 179 199 211 199 215 242 262 315
830.0 374 439 500 552 603 606 595 613 590 515
870.0 447 385 319 257 231 240 251 284 344 385
910.0 415 442 491 522 552 576 568 563 540 517
950.0 512 481 450 460 494 561 640 741 865 989
990.0 1139 1329 1497 1669 1882 2157 2522 3004 3757 4789
1030.0 6068 7479 8684 9470 9948 10000 9302 8093 6909 5946
1070.0 5090 4224 3389 2690 2131 1683 1320 1026 838 741
1110.0 661 620 611 612 622 633 650 688 699 688
1150.0 688 672 664 696 753 846 958 1032 1072 1120
1190.0 1172 1221 1238 1195 1130 1093 1069 1023 947 878
1230.0 842 836 806 782 776 754 725 698 701 719
1270.0 744 791 828 869 914 957 983 1018 1065 1108
1310.0 1170 1258 1380 1500 1584 1702 1808 1802 1741 1683
1350.0 1622 1580 1605 1707 1844 2042 2295 2453 2496 2526
1390.0 2536 2452 2280 2114 1994 1861 1725 1674 1607 1420
1430.0 1306 1281 1203 1127 1049 955 868 866 890 853
1470.0 786 737 734 718 665 629 622 620 564 498
1510.0 483 450 399 372 371 359 326 335 343 301
1550.0 264 242 215 190 192 198 185 169 170 165
1590.0 149 133 120 107 103 107 106 104 92 85
1630.0 78 68 66 62 59 54 56 61 51 53
1670.0 44 32 45 36 27 36 30 32 29 25
1710.0 30 22 20 27 26 25 15 10 18 20
1750.0 23 31 30 31 34 27 24 23 20 24
1790.0 30 23 18 15 16 28 29 23 25 32
1830.0 37 39 29 20 22 36 34 28 42 41
1870.0 39 53 58 46 50 68 67 62 71 75
1910.0 58 49 51 56 50 39 32 19 11 4
1950.0 1 10 5 0 10 8 9 20 20 18
1990.0 21 23 19 22 22 19 22 34 39 40
2030.0 45 59 79 99 108 108 124 128 128 128
2070.0 124 119 114 110 104 97 97 94 78 70
2110.0 71 75 67 46 36 38 31 21 12 10
2150.0 21 21 5 5 16 18 14 13 17 17
2190.0 17 28 29 24 34 45 53 54 52 56
2230.0 73 71 56 46 30 24 30 38 33 31
2270.0 28 21 12 14 24 30 39 45 37 28
2310.0 36 37 25 19 21 33 23 9 16 28
2350.0 33 31 27 26 30 21 30 45 49 62
2390.0 62 56 53 60 73 83 89 86 85 78
2430.0 84 79 65 70 65 65 69 61 58 66
2470.0 73 82 84 77 70 74 89 93 81 75
2510.0 74 72 78 90 93 80 73 76 71 57
2550.0 55 57 70 69 66 58 48 46 48 48
2590.0 53 57 48 44 52 71 79 74 70 75
2630.0 86 92 105 116 113 107 114 122 115 112
2670.0 122 135 131 140 150 159 164 153 159 182
2710.0 203 219 225 236 249 261 291 329 367 401
2750.0 400 407 411 376 352 336 329 329 326 343
2790.0 358 375 382 401 428 466 517 582 657 717
2830.0 818 945 1050 1181 1361 1550 1788 2079 2441 2853
2870.0 3233 3599 3932 4197 4318 4251 4107 4030 4056 4184
2910.0 4428 4787 5351 6113 6952 7518 7564 7530 7492 7187
2950.0 6397 5483 5002 4728 4462 4090 3704 3437 2966 2397
2990.0 1868 1498 1314 1146 1137 1022 843 776 684 678
3030.0 646 654 633 545 491 436 425 410 425 421
3070.0 360 321 301 273 240 247 219 184 175 172
3110.0 145 108 109 101 108 108 82 81 81 62
3150.0 58 53 53 62 62 50 15 26 58 54
3190.0 63 84 79 60 53 42 41 59 62 42
3230.0 53 58 39 17 10 21 39 62 54 52
3270.0 68 73 69 62 65 69 71 58 43 63
3310.0 64 67 97 97 101 114 92 87 105 91
3350.0 88 102 92 54 31 36 59 62 37 23
3390.0 27 50 63 36 33 72 89 85 66 61
3430.0 68 102 115 101 99 93 95 81 81 97
3470.0 110 103 98 110 108 99 94 69 62 64
3510.0 52 74 93 122 163 212 225 199 191 182
3550.0 166 153 133 133 143 135 147 149 150 174
3590.0 235 296 388 624 963 1213 1311 1322 1334 1300
3630.0 1134 953 804 696 687 757 840 920 1016 1076
3670.0 1112 1059 914 804 690 546 405 285 254 254
3710.0 204 158 128 110 125 109 81 87 71 49
3750.0 58 86 84 53 25 35 46 29 23 11
3790.0 24 44 50 34 16 17 21 28 39 56
3830.0 54 62 66 35 17
##END=
