##TITLE=Diiodomethane
##JCAMP-DX=4.24
##DATA TYPE=INFRARED SPECTRUM
##ORIGIN=NIST Mass Spectrometry Data Center
##OWNER=NIST Standard Reference Data Program
Collection (C) 2009 copyright by the U.S. Secretary of Commerce
on behalf of the United States of America. All rights reserved.
##CAS REGISTRY NO=75-11-6
##MOLFORM=C H 2 I 2
##$NIST SOURCE=MSDC-IR
##SPECTROMETER/DATA SYSTEM=HP-GC/MS/IRD
##STATE=gas
##XUNITS=1/CM
##YUNITS=ABSORBANCE
##XFACTOR=1.0
##YFACTOR=0.000001900
##DELTAX=4.0
##FIRSTX=550.0
##LASTX=3846.0
##FIRSTY=0.001256
##MAXX=3846
##MINX=550
##MAXY=0.019
##MINY=0
##NPOINTS=825
##XYDATA=(X++(Y..Y))
550.0 661 910 1337 1870 2529 3120 3383 3253 2621 1779
590.0 816 183 74 84 73 39 15 21 53 50
630.0 52 48 24 15 6 16 48 60 72 76
670.0 103 136 136 151 157 179 198 203 213 203
710.0 204 257 281 261 263 242 221 199 167 155
750.0 144 115 89 76 69 75 70 41 20 21
790.0 35 37 35 47 42 57 25 17 28 41
830.0 40 22 46 35 17 33 42 30 8 6
870.0 32 27 35 45 28 30 36 34 24 16
910.0 31 34 17 34 47 37 43 40 25 23
950.0 33 45 43 51 62 48 26 28 32 26
990.0 27 34 36 35 36 25 23 43 37 23
1030.0 21 29 38 33 55 55 48 58 52 51
1070.0 82 111 146 260 494 980 1945 3615 6283 9311
1110.0 10000 8985 7402 4233 1621 569 264 168 135 118
1150.0 89 81 91 90 82 81 70 55 59 74
1190.0 62 53 50 47 61 73 98 134 134 114
1230.0 114 98 73 57 36 35 32 27 25 34
1270.0 46 37 35 38 31 27 28 36 40 35
1310.0 34 27 29 34 30 24 32 36 29 24
1350.0 26 25 20 22 23 28 34 26 23 30
1390.0 18 21 25 29 38 35 24 10 16 33
1430.0 29 17 26 26 14 17 18 15 17 11
1470.0 11 13 12 22 22 19 22 20 25 25
1510.0 15 13 13 12 19 14 1 9 24 20
1550.0 11 20 30 11 10 22 15 23 15 13
1590.0 28 31 22 19 19 16 15 14 15 21
1630.0 27 26 27 30 25 29 38 19 16 27
1670.0 33 27 19 24 25 19 18 22 21 22
1710.0 28 29 24 21 23 24 24 23 21 26
1750.0 42 50 49 38 23 22 26 23 15 6
1790.0 14 15 11 5 2 17 15 10 19 17
1830.0 10 14 14 14 18 17 22 26 24 28
1870.0 27 13 7 11 18 24 26 23 22 24
1910.0 20 14 15 15 17 16 8 4 6 9
1950.0 6 7 10 10 12 14 21 24 19 11
1990.0 7 12 11 13 12 10 12 25 39 34
2030.0 37 42 41 43 51 50 55 62 51 50
2070.0 62 58 52 60 56 54 52 48 41 38
2110.0 37 38 43 31 26 29 43 42 32 32
2150.0 35 43 51 45 24 18 23 22 22 25
2190.0 28 36 35 36 41 40 48 48 48 51
2230.0 50 46 39 39 31 22 13 12 11 9
2270.0 19 26 22 14 15 15 7 8 13 17
2310.0 25 21 15 17 27 36 28 18 20 22
2350.0 19 17 22 40 36 22 21 17 12 15
2390.0 12 11 17 18 21 27 32 28 38 44
2430.0 35 35 37 33 36 43 52 52 59 79
2470.0 95 100 86 87 80 43 24 36 41 37
2510.0 36 28 24 32 33 33 36 26 30 43
2550.0 48 53 48 48 49 51 48 51 50 44
2590.0 43 39 34 34 38 41 47 45 40 32
2630.0 28 39 54 57 52 56 54 41 39 37
2670.0 38 50 62 61 56 54 39 43 57 63
2710.0 63 58 46 43 53 56 62 61 59 63
2750.0 52 47 42 43 55 52 48 61 54 39
2790.0 36 43 45 49 55 55 53 51 66 71
2830.0 56 64 68 50 52 63 63 64 54 49
2870.0 57 62 56 58 62 60 53 48 51 62
2910.0 60 55 79 86 64 54 48 46 46 44
2950.0 68 73 59 69 77 71 63 64 71 74
2990.0 76 78 71 72 75 81 94 89 72 70
3030.0 85 97 113 135 142 145 147 162 175 168
3070.0 172 184 172 162 172 157 138 129 128 127
3110.0 105 95 97 78 65 69 65 61 49 46
3150.0 46 45 50 65 69 67 78 72 50 48
3190.0 63 67 72 73 65 59 54 56 55 54
3230.0 50 48 49 46 49 62 66 67 68 61
3270.0 49 42 51 71 53 48 57 39 26 46
3310.0 58 56 39 51 60 49 55 68 55 46
3350.0 49 34 34 50 70 67 60 61 46 48
3390.0 56 57 63 57 46 41 30 24 50 52
3430.0 40 47 46 44 37 32 46 65 55 36
3470.0 49 60 55 54 54 44 30 30 35 20
3510.0 22 48 47 25 13 27 37 48 60 52
3550.0 51 48 51 42 40 50 48 50 51 40
3590.0 32 30 32 32 30 37 36 47 36 16
3630.0 22 30 35 48 43 15 6 20 27 36
3670.0 49 47 34 17 20 24 18 36 48 41
3710.0 37 38 18 1 0 6 45 54 44 51
3750.0 35 32 30 30 32 21 25 20 18 18
3790.0 19 30 21 17 28 35 45 29 14 13
3830.0 18 31 35 18 28
##END=
