##TITLE=Cyclopropylmethanoic acid
##JCAMP-DX=4.24
##DATA TYPE=INFRARED SPECTRUM
##ORIGIN=NIST Mass Spectrometry Data Center
##OWNER=NIST Standard Reference Data Program
Collection (C) 2009 copyright by the U.S. Secretary of Commerce
on behalf of the United States of America. All rights reserved.
##CAS REGISTRY NO=1759-53-1
##MOLFORM=C 4 H 6 O 2
##$NIST SOURCE=MSDC-IR
##SPECTROMETER/DATA SYSTEM=HP-GC/MS/IRD
##STATE=gas
##XUNITS=1/CM
##YUNITS=ABSORBANCE
##XFACTOR=1.0
##YFACTOR=0.000001000
##DELTAX=4.0
##FIRSTX=550.0
##LASTX=3846.0
##FIRSTY=0.001509
##MAXX=3846
##MINX=550
##MAXY=0.01
##MINY=0
##NPOINTS=825
##XYDATA=(X++(Y..Y))
550.0 1509 1743 2114 2429 2527 2566 2585 2590 2703 2626
590.0 2187 1938 1744 1559 1379 1170 1052 860 721 652
630.0 497 315 181 138 107 91 98 82 102 88
670.0 13 16 71 105 109 93 84 64 42 63
710.0 81 84 135 209 274 322 388 480 566 603
750.0 670 796 771 663 594 500 426 384 320 281
790.0 277 256 251 290 319 377 464 518 561 552
830.0 533 497 453 432 340 276 245 199 152 117
870.0 120 143 161 169 214 265 328 453 613 797
910.0 1003 1131 1136 1143 1162 1042 940 817 615 437
950.0 308 235 203 204 220 236 248 248 279 335
990.0 386 472 589 726 874 1012 1124 1143 1174 1278
1030.0 1368 1387 1358 1306 1226 1147 1083 1047 974 922
1070.0 923 929 1023 1197 1406 1716 2206 2979 4029 5383
1110.0 6932 8319 9126 9499 9947 9812 9542 9164 7492 5307
1150.0 3670 2836 2484 2179 1926 1806 1761 1711 1648 1592
1190.0 1497 1358 1168 950 753 603 469 351 290 250
1230.0 225 232 236 259 301 376 457 503 531 557
1270.0 570 573 568 561 524 468 434 407 383 364
1310.0 338 325 344 375 419 466 489 518 549 538
1350.0 563 599 589 582 587 612 684 800 974 1208
1390.0 1530 1934 2316 2589 2735 2836 2822 2735 2617 2215
1430.0 1634 1195 942 800 702 640 573 507 468 405
1470.0 358 307 237 169 135 117 104 103 95 102
1510.0 111 110 99 94 116 122 100 84 72 72
1550.0 63 45 35 42 51 40 28 22 23 30
1590.0 41 46 41 24 35 55 43 32 25 43
1630.0 57 54 72 85 97 99 95 110 122 139
1670.0 140 139 143 150 180 215 253 305 366 422
1710.0 501 596 710 871 1072 1352 1762 2316 3042 3975
1750.0 5162 6567 8024 9227 9714 9604 9893 10000 9276 8157
1790.0 6425 4467 2954 1971 1361 948 680 530 435 378
1830.0 354 336 320 303 287 266 232 202 183 162
1870.0 143 135 120 113 107 101 107 116 108 99
1910.0 82 73 67 55 58 66 67 64 63 56
1950.0 57 64 59 47 39 34 35 32 27 20
1990.0 14 24 20 20 32 43 43 33 37 40
2030.0 41 31 30 39 43 43 45 44 41 43
2070.0 44 44 36 30 40 53 54 45 45 42
2110.0 33 42 40 36 47 39 31 22 13 14
2150.0 8 9 7 7 17 19 14 5 10 25
2190.0 34 39 45 46 46 49 62 59 46 71
2230.0 76 66 67 70 66 43 40 44 38 39
2270.0 40 39 34 22 20 16 13 26 32 22
2310.0 13 2 1 3 20 26 25 30 15 13
2350.0 28 32 17 15 39 48 41 32 35 31
2390.0 25 36 38 40 42 35 28 28 36 33
2430.0 32 19 7 17 24 19 25 25 34 44
2470.0 35 44 43 33 34 44 53 52 53 57
2510.0 56 41 31 34 44 43 29 32 50 64
2550.0 51 44 27 23 36 30 31 31 26 15
2590.0 17 28 38 46 42 39 48 50 35 45
2630.0 43 32 39 36 42 44 39 39 52 52
2670.0 52 50 38 44 55 58 49 55 52 40
2710.0 43 44 34 29 38 33 27 41 51 47
2750.0 48 55 57 47 30 27 39 50 47 62
2790.0 61 62 70 71 81 76 64 60 64 64
2830.0 54 42 42 52 40 42 61 51 50 69
2870.0 77 72 69 71 69 77 73 68 78 86
2910.0 85 65 64 81 54 43 50 44 42 55
2950.0 65 61 85 85 73 79 78 87 98 129
2990.0 164 212 271 312 383 475 558 649 718 779
3030.0 769 686 633 576 492 416 337 259 219 224
3070.0 204 167 168 198 226 249 274 315 346 332
3110.0 316 304 276 250 226 197 155 128 107 71
3150.0 61 61 63 62 53 58 61 48 51 54
3190.0 61 61 50 51 51 44 31 43 56 35
3230.0 18 33 48 54 34 24 42 45 43 35
3270.0 30 37 32 14 18 51 75 53 47 50
3310.0 47 39 38 48 51 51 39 37 41 40
3350.0 32 24 48 50 31 30 35 53 56 49
3390.0 34 29 34 33 30 24 17 34 44 38
3430.0 18 14 32 37 52 53 62 61 43 45
3470.0 61 55 44 50 52 69 86 88 97 118
3510.0 123 133 155 160 147 142 167 190 200 239
3550.0 325 508 831 1308 1856 2252 2381 2621 2677 2453
3590.0 2451 2175 1602 1063 642 391 223 138 130 90
3630.0 62 45 23 37 53 45 44 38 28 41
3670.0 39 27 18 6 2 15 17 14 10 9
3710.0 26 35 35 11 1 1 1 0 22 1
3750.0 1 1 14 21 9 3 14 11 4 1
3790.0 4 16 23 7 0 4 24 43 26 13
3830.0 38 48 42 41 47
##END=
