##TITLE=2-Chloropropionamide
##JCAMP-DX=4.24
##DATA TYPE=INFRARED SPECTRUM
##ORIGIN=EPA-IR VAPOR PHASE LIBRARY
##OWNER=SRD/NIST
Collection (C) 2009 copyright by the U.S. Secretary of Commerce
on behalf of the United States of America. All rights reserved.
##CAS REGISTRY NO=27816-36-0
##MOLFORM=C 3 H 6 Cl N O
##$NIST SOURCE=MSDC-IR
##STATE=gas
##XUNITS=1/CM
##YUNITS=ABSORBANCE
##XFACTOR=1.
##YFACTOR=0.001
##DELTAX=1.92934
##FIRSTX=549.9
##LASTX=3999.5
##FIRSTY=7.43
##MAXX=3999.53
##MINX=549.863
##MAXY=0.13163
##MINY=0
##NPOINTS=1789
##XYDATA=(X++(Y..Y))
549.863 7.43 7.68 7.72 7.81 7.74 7.54 7.49 7.32 7.13 6.94
569.156 6.9 6.72 6.3 6.1 5.92 5.78 5.53 5.14 4.92 4.73
588.450 4.49 4.3 4.19 3.99 3.88 3.79 3.66 3.62 3.57 3.63
607.743 3.65 3.57 3.58 3.66 3.83 3.98 4 4.11 4.21 4.38
627.037 4.57 4.7 5.02 5.34 5.56 5.79 6.13 6.35 6.53 6.84
646.330 7.15 7.4 7.62 7.86 8.05 8.17 8.34 8.47 8.52 8.58
665.624 8.6 8.63 8.63 8.61 8.65 8.85 9.1 9.27 9.52 9.77
684.917 10.02 10.37 10.61 10.87 11.1 11.18 11.27 11.27 11.17 11.12
704.210 11.03 10.97 10.96 10.93 10.93 10.93 10.86 10.84 10.8 10.72
723.504 10.72 10.7 10.67 10.56 10.48 10.48 10.39 10.39 10.38 10.29
742.797 10.1 9.84 9.75 9.62 9.47 9.35 9.25 9.22 9.2 9.2
762.091 9.21 9.24 9.25 9.24 9.24 9.16 9.05 9.03 8.97 8.76
781.384 8.57 8.4 8.26 8.17 8.04 7.84 7.69 7.61 7.54 7.34
800.678 7.13 7.05 7 6.94 6.88 6.81 6.73 6.7 6.64 6.58
819.971 6.58 6.56 6.49 6.5 6.56 6.56 6.56 6.67 6.84 7
839.264 7.21 7.37 7.49 7.68 7.92 8.1 8.26 8.44 8.59 8.7
858.558 8.79 8.79 8.79 8.8 8.83 8.79 8.7 8.63 8.55 8.42
877.851 8.34 8.25 8.1 8.01 7.93 7.88 7.86 7.88 7.93 7.88
897.145 7.91 8.02 8.06 8.09 8.1 8.15 8.19 8.15 8.15 8.08
916.438 7.96 7.88 7.79 7.69 7.54 7.38 7.25 7.09 6.9 6.73
935.732 6.64 6.53 6.46 6.43 6.4 6.39 6.41 6.57 6.74 6.86
955.025 7.05 7.33 7.68 8.08 8.56 9.13 9.77 10.43 11.1 11.72
974.318 12.21 12.52 12.74 12.9 13.04 13.09 13.04 12.94 12.85 12.65
993.612 12.22 11.59 10.79 9.87 8.98 8.18 7.52 6.97 6.47 6.07
1012.905 5.78 5.57 5.33 5.11 4.94 4.8 4.72 4.65 4.59 4.58
1032.199 4.65 4.76 4.86 5 5.16 5.28 5.48 5.72 6 6.39
1051.492 6.82 7.27 7.76 8.32 8.89 9.43 9.85 10.1 10.26 10.34
1070.786 10.3 10.15 9.88 9.47 9.02 8.58 8.01 7.41 6.84 6.16
1090.079 5.57 5.04 4.48 4.1 3.84 3.52 3.27 3.14 3.02 2.88
1109.372 2.74 2.67 2.64 2.49 2.3661 2.3546 2.2348 2.1691 2.1514 1.9802
1128.666 1.8763 1.8317 1.8003 1.6325 1.44455 1.47561 1.44608 1.39025 1.42156 1.3656
1147.959 1.225 1.237 1.255 1.246 1.285 1.3112 1.3476 1.38321 1.38966 1.41871
1167.253 1.42994 1.496 1.6599 1.6531 1.5939 1.5627 1.5965 1.632 1.7064 1.9795
1186.546 2.149 2.2757 2.45 2.64 2.87 3 3.38 3.79 4.07 4.8
1205.840 5.56 6.06 6.61 7.41 8.17 9.02 10.17 11.39 12.33 13.17
1225.133 14.16 14.99 15.48 15.83 16.04 16.28 16.33 16.3 16.11 15.46
1244.426 14.77 14.01 13.1 12.04 10.95 10.03 9.35 8.93 8.56 8.28
1263.720 8.18 8.17 8.22 8.23 8.17 8.18 8.24 8.11 7.98 7.88
1283.013 7.74 7.77 7.87 8.03 8.22 8.18 8.13 8.18 8.22 8.33
1302.307 8.51 8.64 8.76 8.95 9.22 9.52 9.87 10.26 10.77 11.38
1321.600 11.99 12.69 13.54 14.49 15.57 16.78 18.17 19.75 21.41 23.12
1340.894 24.86 26.55 28.21 29.75 31.04 32.05 32.81 33.27 33.46 33.51
1360.187 33.45 33.19 32.7 31.99 31.03 29.81 28.35 26.71 24.89 22.84
1379.480 20.81 19.45 18.94 18.55 17.68 16.36 14.95 13.58 12.11 10.66
1398.774 9.28 7.98 6.92 5.97 5.18 4.57 4.11 3.76 3.55 3.4
1418.067 3.28 3.25 3.31 3.38 3.49 3.72 4.01 4.33 4.77 5.21
1437.361 5.63 6.08 6.49 6.81 7.09 7.32 7.56 7.93 8.3 8.41
1456.654 8.15 7.59 7.02 6.54 6.17 5.85 5.59 5.24 4.81 4.4
1475.948 3.97 3.56 3.26 2.97 2.68 2.51 2.4 2.2392 2.1007 2.0936
1495.241 2.0638 1.9414 1.9104 1.9236 1.9083 1.897 1.9246 1.9657 1.991 2.0468
1514.534 2.1248 2.1409 2.1709 2.2494 2.357 2.47 2.6 2.78 2.97 3.17
1533.828 3.42 3.73 4.05 4.49 5.13 5.87 6.71 7.73 8.96 10.45
1553.121 12.23 14.33 16.63 19.34 22.4 25.39 28.37 31.19 33.78 36.28
1572.415 38.51 40.34 42.1 43.64 44.54 44.79 44.43 43.55 42.27 40.61
1591.708 38.63 36.34 33.91 31.35 28.72 26.25 23.86 21.6 19.6 17.83
1611.002 16.24 14.91 13.72 12.58 11.63 10.83 10.15 9.49 8.9 8.38
1630.295 7.88 7.39 6.98 6.6 6.26 5.98 5.72 5.42 5.19 5.09
1649.588 5.03 4.92 4.88 5.01 5.09 5.19 5.38 5.59 5.9 6.21
1668.882 6.55 7.01 7.6 8.21 8.89 9.61 10.41 11.33 12.4 13.59
1688.175 14.86 16.28 17.87 19.72 22.08 24.76 27.92 32.01 36.61 42.29
1707.469 49.09 57.05 66.01 75.82 86.01 96.05 105.33 112.91 119.01 124.18
1726.762 128.75 131.54 131.63 131.22 131.17 130.17 126.67 119.79 110.33 99.02
1746.056 87.1 75.47 64.88 55.58 48.02 42.18 37.74 34.71 32.87 31.63
1765.349 30.19 28 25.18 22.47 20.24 18.48 16.97 15.59 14.13 12.54
1784.642 10.93 9.44 8.07 6.93 5.97 5.17 4.55 4.06 3.71 3.4
1803.936 3.13 2.91 2.76 2.61 2.42 2.2691 2.1759 2.0882 1.9931 1.9297
1823.229 1.8851 1.8223 1.7816 1.7611 1.7015 1.6479 1.5921 1.5662 1.5898 1.5859
1842.523 1.5525 1.5467 1.5609 1.5196 1.4942 1.499 1.5249 1.5115 1.4813 1.4923
1861.816 1.46036 1.448 1.41726 1.40034 1.41573 1.39105 1.38524 1.372 1.3273 1.3249
1881.110 1.3436 1.3253 1.3131 1.3193 1.3212 1.345 1.3508 1.3288 1.3288 1.3362
1900.403 1.3597 1.3201 1.288 1.3134 1.277 1.27 1.265 1.211 1.195 1.201
1919.696 1.198 1.203 1.227 1.223 1.2 1.2 1.198 1.153 1.156 1.223
1938.990 1.254 1.244 1.243 1.22 1.202 1.156 1.138 1.178 1.185 1.175
1958.283 1.16 1.14 1.13 1.134 1.138 1.124 1.085 1.082 1.093 1.064
1977.577 1.048 1.048 1.033 1.002 0.981 0.967 0.96 1 0.992 0.964
1996.870 0.95 0.927 0.982 1.003 0.991 0.971 0.986 1.018 0.991 0.987
2016.164 0.987 0.981 0.961 0.946 0.96 0.976 0.966 0.938 0.927 0.949
2035.457 0.973 0.971 0.983 0.973 0.945 0.942 0.921 0.947 0.971 0.94
2054.750 0.945 0.96 0.939 0.942 0.945 0.94 0.968 0.968 0.938 0.912
2074.044 0.9 0.918 0.941 0.953 0.971 0.953 0.912 0.926 0.956 0.975
2093.337 0.953 0.908 0.895 0.899 0.911 0.923 0.923 0.922 0.951 0.944
2112.631 0.919 0.928 0.924 0.938 0.957 0.953 0.924 0.897 0.929 0.951
2131.924 0.943 0.933 0.937 0.96 0.962 0.943 0.931 0.921 0.923 0.924
2151.218 0.925 0.906 0.906 0.919 0.902 0.944 0.962 0.958 0.976 0.934
2170.511 0.899 0.896 0.924 0.947 0.943 0.943 0.925 0.939 0.969 0.948
2189.804 0.973 1.002 0.948 0.92 0.929 0.938 0.922 0.938 0.963 0.97
2209.098 0.978 0.947 0.886 0.886 0.922 0.928 0.914 0.879 0.9 0.933
2228.391 0.93 0.907 0.921 0.955 0.969 0.961 0.925 0.886 0.882 0.906
2247.685 0.901 0.899 0.919 0.932 0.897 0.884 0.94 0.935 0.883 0.891
2266.978 0.889 0.913 0.942 0.92 0.91 0.911 0.893 0.86 0.854 0.863
2286.272 0.862 0.9 0.924 0.868 0.858 0.871 0.87 0.881 0.875 0.877
2305.565 0.882 0.896 0.943 0.927 0.877 0.855 0.879 0.893 0.875 0.892
2324.858 0.908 0.913 0.912 0.91 0.903 0.899 0.914 0.938 0.948 0.964
2344.152 0.962 0.941 0.923 0.918 0.946 0.964 0.961 0.965 0.954 0.954
2363.445 0.996 1.011 0.992 0.983 0.953 0.957 1.012 1.014 0.984 0.967
2382.739 0.969 0.973 1.006 1.021 1.013 1.02 0.996 0.976 1.006 1.021
2402.032 1.022 1.024 0.988 0.971 1.007 1.002 0.963 0.963 1.007 1.059
2421.326 1.06 1.071 1.079 1.068 1.083 1.095 1.081 1.109 1.15 1.149
2440.619 1.128 1.13 1.115 1.113 1.125 1.13 1.173 1.176 1.121 1.08
2459.912 1.077 1.068 1.018 0.993 0.998 0.988 0.981 0.96 0.933 0.92
2479.206 0.934 0.937 0.936 0.92 0.906 0.905 0.893 0.923 0.886 0.836
2498.499 0.857 0.895 0.916 0.896 0.902 0.896 0.92 0.937 0.899 0.849
2517.793 0.844 0.886 0.886 0.879 0.922 0.942 0.945 0.954 0.93 0.92
2537.086 0.912 0.913 0.881 0.858 0.909 0.921 0.889 0.88 0.847 0.841
2556.380 0.875 0.921 0.939 0.921 0.897 0.888 0.907 0.864 0.814 0.79
2575.673 0.818 0.871 0.823 0.833 0.856 0.835 0.85 0.843 0.832 0.845
2594.966 0.813 0.802 0.829 0.828 0.835 0.816 0.823 0.82 0.806 0.825
2614.260 0.845 0.817 0.794 0.816 0.851 0.864 0.826 0.865 0.893 0.864
2633.553 0.855 0.843 0.869 0.872 0.895 0.883 0.841 0.866 0.879 0.905
2652.847 0.942 0.938 0.912 0.889 0.894 0.874 0.865 0.862 0.838 0.859
2672.140 0.873 0.862 0.847 0.822 0.884 0.966 0.921 0.821 0.765 0.819
2691.434 0.822 0.79 0.848 0.862 0.829 0.804 0.786 0.781 0.79 0.83
2710.727 0.907 0.954 0.879 0.802 0.824 0.806 0.773 0.8 0.821 0.832
2730.020 0.825 0.831 0.823 0.839 0.865 0.805 0.764 0.762 0.735 0.8
2749.314 0.874 0.882 0.89 0.813 0.816 0.848 0.805 0.857 0.892 0.879
2768.607 0.894 0.865 0.824 0.834 0.848 0.898 0.97 0.988 0.957 0.92
2787.901 0.917 0.958 0.959 0.979 1.032 1.042 1.089 1.19 1.267 1.251
2807.194 1.25 1.266 1.264 1.3033 1.3275 1.3778 1.41894 1.47328 1.4959 1.43806
2826.488 1.45328 1.45713 1.47488 1.48409 1.48378 1.5003 1.39653 1.3012 1.3397 1.39668
2845.781 1.3417 1.3637 1.39885 1.38296 1.43564 1.44403 1.45228 1.5359 1.6897 1.7508
2865.074 1.7044 1.7067 1.8259 2.0008 2.052 2.1309 2.2355 2.3204 2.4 2.3889
2884.368 2.41 2.41 2.43 2.53 2.52 2.51 2.54 2.53 2.52 2.51
2903.661 2.47 2.3333 2.2989 2.3406 2.4 2.43 2.45 2.62 2.81 2.91
2922.955 3.11 3.32 3.61 4 4.31 4.65 4.99 5.4 5.65 5.75
2942.248 5.99 6.06 6.03 6.11 6.16 6.2 6.19 6.09 5.91 5.78
2961.542 5.63 5.46 5.27 5.14 5.09 5.01 5.15 5.51 5.84 6.26
2980.835 6.68 7.12 7.63 8.23 9.01 9.69 10.34 10.84 11.17 11.13
3000.128 10.74 10.53 10.5 9.92 8.97 8.32 7.77 7.03 6.25 5.42
3019.422 4.43 3.75 3.29 2.83 2.49 2.1325 1.865 1.7801 1.5827 1.40372
3038.715 1.3165 1.236 1.226 1.201 1.098 0.95 0.82 0.822 0.85 0.825
3058.009 0.821 0.874 0.762 0.696 0.68 0.642 0.694 0.642 0.698 0.764
3077.302 0.786 0.839 0.851 0.76 0.751 0.746 0.672 0.727 0.724 0.697
3096.596 0.673 0.614 0.605 0.586 0.598 0.563 0.438 0.469 0.498 0.471
3115.889 0.528 0.501 0.534 0.583 0.598 0.619 0.62 0.608 0.639 0.602
3135.182 0.538 0.504 0.573 0.62 0.48 0.525 0.588 0.471 0.606 0.746
3154.476 0.606 0.604 0.534 0.441 0.463 0.494 0.501 0.443 0.418 0.51
3173.769 0.517 0.487 0.568 0.507 0.39 0.39 0.396 0.3 0.25 0.26
3193.063 0.32 0.502 0.538 0.459 0.32 0.24 0.34 0.38 0.25 0.33
3212.356 0.451 0.34 0.41 0.429 0.405 0.403 0.3 0.25 0.23 0.27
3231.650 0.3 0.25 0.24 0.26 0.35 0.3 0.22 0.24 0.19 0.22
3250.943 0.18 0.06 0.08 0.11 0.21 0.14 0.04 0.07 0 0.08
3270.236 0.17 0.12 0.08 0.2 0.17 0.21 0.27 0.16 0.26 0.28
3289.530 0.2 0.16 0.28 0.32 0.33 0.422 0.42 0.461 0.441 0.41
3308.823 0.448 0.49 0.544 0.502 0.407 0.443 0.35 0.26 0.417 0.41
3328.117 0.26 0.31 0.35 0.31 0.36 0.454 0.542 0.471 0.37 0.41
3347.410 0.46 0.415 0.31 0.3 0.35 0.37 0.563 0.706 0.7 0.712
3366.704 0.649 0.705 0.793 0.907 1.062 1.129 1.204 1.272 1.41483 1.5391
3385.997 1.7168 1.9948 2.364 2.82 3.16 3.47 3.89 4.39 4.95 5.69
3405.290 6.42 7.05 7.92 8.92 9.81 10.86 11.93 12.92 13.84 14.58
3424.584 15.27 15.82 15.99 15.9 15.62 15.14 14.54 14.03 13.59 12.83
3443.877 11.84 10.76 9.67 8.5 7.29 6.3 5.55 4.87 4.21 3.71
3463.171 3.19 2.74 2.61 2.55 2.46 2.3755 2.2645 2.2096 2.2731 2.47
3482.464 2.56 2.58 2.72 2.86 3.11 3.35 3.6 3.77 3.94 4.28
3501.758 4.7 5.13 5.51 6.07 6.66 7.23 7.89 8.6 9.41 10.25
3521.051 11.29 12.37 13.45 14.55 15.62 17.06 18.75 20.27 21.62 22.78
3540.344 23.75 24.55 25.01 25.14 24.85 24.1 23.05 21.92 20.89 19.63
3559.638 17.95 16.26 14.53 12.63 10.59 8.6 6.84 5.29 4.15 3.28
3578.931 2.55 2.0859 1.7537 1.5981 1.4935 1.3061 1.18 1.099 1.08 0.998
3598.225 0.88 0.806 0.871 0.888 0.808 0.821 0.755 0.62 0.608 0.621
3617.518 0.56 0.59 0.659 0.642 0.563 0.527 0.545 0.551 0.566 0.601
3636.812 0.64 0.622 0.515 0.455 0.548 0.598 0.62 0.709 0.591 0.572
3656.105 0.66 0.663 0.622 0.6 0.658 0.566 0.556 0.618 0.544 0.502
3675.398 0.634 0.717 0.656 0.605 0.617 0.637 0.616 0.649 0.651 0.532
3694.692 0.567 0.653 0.674 0.611 0.544 0.601 0.592 0.621 0.659 0.7
3713.985 0.768 0.69 0.649 0.69 0.726 0.669 0.682 0.712 0.531 0.553
3733.279 0.643 0.626 0.608 0.58 0.675 0.61 0.588 0.789 0.774 0.758
3752.572 0.736 0.693 0.706 0.686 0.675 0.719 0.718 0.705 0.768 0.798
3771.866 0.846 0.866 0.769 0.761 0.792 0.767 0.739 0.702 0.771 0.785
3791.159 0.733 0.755 0.754 0.75 0.78 0.715 0.652 0.7 0.692 0.665
3810.452 0.788 0.784 0.778 0.83 0.813 0.783 0.682 0.739 0.762 0.752
3829.746 0.806 0.852 0.895 0.813 0.671 0.714 0.847 0.783 0.79 0.8
3849.039 0.724 0.796 0.77 0.646 0.666 0.675 0.776 0.838 0.746 0.758
3868.333 0.791 0.819 0.812 0.722 0.757 0.839 0.854 0.848 0.854 0.805
3887.626 0.739 0.693 0.718 0.848 0.826 0.808 0.827 0.74 0.752 0.844
3906.920 0.856 0.788 0.774 0.776 0.756 0.75 0.759 0.798 0.757 0.726
3926.213 0.746 0.83 0.901 0.868 0.763 0.743 0.789 0.783 0.815 0.928
3945.506 0.95 0.937 1.001 0.99 0.939 0.969 0.991 0.877 0.807 0.844
3964.800 0.861 0.846 0.837 0.814 0.726 0.775 0.874 0.874 0.872 0.923
3984.093 0.956 0.901 0.905 0.912 0.872 0.855 0.889 0.829 0.811
##END=
