##TITLE=1-Bromo-2-fluoroethane
##JCAMP-DX=4.24
##DATA TYPE=INFRARED SPECTRUM
##ORIGIN=NIST Mass Spectrometry Data Center
##OWNER=NIST Standard Reference Data Program
Collection (C) 2009 copyright by the U.S. Secretary of Commerce
on behalf of the United States of America. All rights reserved.
##CAS REGISTRY NO=762-49-2
##MOLFORM=C 2 H 4 Br F
##$NIST SOURCE=MSDC-IR
##SPECTROMETER/DATA SYSTEM=HP-GC/MS/IRD
##STATE=gas
##XUNITS=1/CM
##YUNITS=ABSORBANCE
##XFACTOR=1.0
##YFACTOR=0.000003800
##DELTAX=4.0
##FIRSTX=550.0
##LASTX=3846.0
##FIRSTY=0.001011
##MAXX=3846
##MINX=550
##MAXY=0.038
##MINY=0
##NPOINTS=825
##XYDATA=(X++(Y..Y))
550.0 266 195 180 258 330 398 489 556 555 554
590.0 614 672 543 288 147 112 94 93 90 114
630.0 156 201 259 327 402 481 578 667 742 854
670.0 1024 1278 1555 1703 1764 1799 1771 1585 1201 760
710.0 449 292 220 154 105 86 54 24 32 44
750.0 26 14 18 23 31 42 46 59 76 76
790.0 91 137 186 241 294 323 336 331 329 343
830.0 348 308 233 178 161 145 125 119 125 134
870.0 137 133 133 140 163 190 212 223 240 254
910.0 276 297 302 314 333 371 427 485 512 523
950.0 544 545 570 609 644 699 798 963 1205 1547
990.0 2013 2674 3587 4734 6004 7331 8518 9353 9949 10000
1030.0 9131 7888 6558 5149 4249 4072 4252 4417 4413 4390
1070.0 4472 4396 3979 3436 3003 2797 2718 2436 1923 1416
1110.0 1076 827 627 502 412 327 279 260 258 283
1150.0 288 305 352 377 385 379 369 385 388 381
1190.0 393 413 472 580 696 779 793 849 960 909
1230.0 738 614 590 613 607 599 639 770 991 1286
1270.0 1586 1758 1752 1695 1639 1604 1414 1000 627 397
1310.0 281 217 172 143 129 131 135 133 141 162
1350.0 183 218 265 333 437 563 672 764 838 854
1390.0 775 708 713 667 590 574 620 672 698 736
1430.0 786 866 923 912 863 792 734 729 718 656
1470.0 546 461 403 339 305 273 236 200 165 137
1510.0 120 105 89 71 59 54 45 33 31 32
1550.0 29 20 10 12 13 12 13 13 15 13
1590.0 12 10 13 18 20 18 13 15 18 17
1630.0 13 8 7 8 7 4 7 11 6 2
1670.0 2 2 1 0 3 7 4 9 22 32
1710.0 32 28 34 41 44 44 43 43 39 38
1750.0 39 40 38 29 18 13 10 8 7 2
1790.0 0 4 3 2 2 4 7 6 7 10
1830.0 9 7 6 7 5 5 7 10 14 16
1870.0 20 27 27 29 32 30 30 31 32 32
1910.0 30 25 23 24 21 18 14 13 13 8
1950.0 8 14 14 15 14 15 20 25 31 34
1990.0 35 39 47 52 56 65 74 80 87 94
2030.0 104 103 98 93 78 69 63 52 48 44
2070.0 45 51 54 52 51 50 46 46 41 34
2110.0 34 30 30 27 20 14 14 15 16 19
2150.0 22 22 27 32 35 38 38 42 50 52
2190.0 52 53 58 62 61 66 69 68 67 64
2230.0 63 65 66 61 56 54 49 44 43 43
2270.0 42 37 37 32 30 29 24 17 16 18
2310.0 20 22 11 10 17 13 13 15 12 16
2350.0 22 19 16 24 29 29 28 35 38 31
2390.0 28 34 35 36 41 41 44 42 36 40
2430.0 42 47 48 46 48 49 50 50 53 57
2470.0 53 43 43 50 49 36 37 42 38 36
2510.0 39 43 43 46 47 45 45 41 41 44
2550.0 46 47 37 31 32 34 25 24 28 25
2590.0 21 20 22 24 27 23 22 25 32 39
2630.0 38 41 46 50 53 57 63 67 67 67
2670.0 62 60 61 50 47 48 54 55 59 69
2710.0 66 59 68 74 75 84 85 95 108 117
2750.0 125 125 125 125 125 123 114 102 99 93
2790.0 81 82 88 88 97 106 113 127 141 156
2830.0 170 185 194 210 228 238 244 266 303 349
2870.0 413 500 608 726 851 946 970 985 1033 1073
2910.0 1084 1048 997 1005 1111 1240 1362 1470 1535 1632
2950.0 1808 1997 2150 2255 2381 2499 2583 2684 2644 2629
2990.0 2533 2212 1969 1750 1529 1346 1193 1047 938 835
3030.0 708 633 590 502 413 359 307 274 248 209
3070.0 181 162 148 142 126 105 94 85 87 91
3110.0 80 78 83 77 68 62 56 52 54 60
3150.0 49 42 48 46 52 61 68 61 52 45
3190.0 47 61 68 73 64 53 61 61 57 55
3230.0 50 54 53 48 53 51 41 38 34 41
3270.0 50 49 47 47 52 39 29 34 32 37
3310.0 42 42 46 39 32 32 30 30 33 36
3350.0 25 18 28 34 24 22 30 35 45 34
3390.0 36 56 56 41 34 40 42 40 28 25
3430.0 37 41 42 42 37 48 57 52 42 38
3470.0 29 20 19 23 28 27 30 34 29 25
3510.0 40 49 45 38 33 36 40 40 40 37
3550.0 43 57 55 50 50 47 36 32 34 35
3590.0 35 33 37 35 42 54 49 41 46 44
3630.0 32 27 36 44 41 38 37 35 40 42
3670.0 24 16 26 32 30 28 28 29 28 34
3710.0 31 28 28 34 47 42 36 43 44 35
3750.0 32 46 50 49 46 43 38 46 63 62
3790.0 64 59 47 41 46 46 30 21 33 43
3830.0 43 49 47 38 47
##END=
