##TITLE=Methyl tert-Butyl Ether
##JCAMP-DX=4.24
##DATA TYPE=INFRARED SPECTRUM
##CLASS=IUPAC A
##ORIGIN=NIST, Anayltical Chemistry Division, 301-975-3108
##OWNER=COPYRIGHT (C) 1998 by the U.S. Secretary of Commerce
##DATE=98/10/1
##$SPECTRA VERSION=1.00
##$UNCERTAINTY IN Y=2.1 % relative (B=1.1E-04,C=7.8E-10,D=2.7E-14)
##CAS NAME=tert-Butyl Methyl Ether
##CAS REGISTRY NO=1634-04-4
##MOLFORM=( C H3)3 C O C H3
##MP=-109 C
##BP=55.2 C
##$NIST SOURCE=QUANT-IR
##SPECTROMETER/DATA SYSTEM=IFS66V (Bruker)
##INSTRUMENT PARAMETERS=KBr Beam splitter; MCT Detector; Multipass cell
##STATE=gas
##SAMPLE DESCRIPTION=MTBE Primary Gas Standard
##PRESSURE=101.3 kPa
##TEMPERATURE=23 C
##SAMPLING PROCEDURE=1 L/min Flow
##RESOLUTION=1.9290
##DATA PROCESSING=Boxcar Apodization
##XUNITS=cm-1
##YUNITS=(micromol/mol)-1m-1 (base 10)
##XFACTOR=1.0
##YFACTOR=9.0949E-13
##DELTAX=0.9645
##FIRSTX=574.687
##LASTX=3974.595
##FIRSTY=2.57E-07
##MAXX=3973.63
##MINX=574.69
##MAXY=.0011882
##MINY=-3.23E-07
##NPOINTS=3527
##XYDATA=(X++(Y..Y))
574.69 283488-261906 66254 207600-211856 68696
579.51-354848-129352-353704-323574 41828-95330
585.29-375550-244162-356080 42376 66692 42296
591.08 27966-193872 128018 245776-26048-13340
596.86 135222-45070-243608 68128 94042 27734
602.65 129532 41012 54192 9630 55364-64006
608.44 96948 266916-78602 170310 16780 126302
614.22 94394-31762 52672 65114 81900 54636
620.01 69538 51170 118580 62052 103662 70136
625.79 37488 218618 61122 108630 151552 106262
631.58 105684 95956 104236 76912 57576 67940
637.36 44724 169908 128176 185896 8222 84106
643.15 163034 55902 137848 177370 3254 102898
648.93 83212 109778 51842 191002 110288 156612
654.72 71282 92776 106468 138630 183576 112070
660.50 72238 183624 136136 150220 69680 260022
666.29-178220-101524 254172 101880 232408 222226
672.08 246206 406166 393512 292906 531672 414216
677.86 435752 456340 482490 501484 580140 549860
683.65 538552 430940 729390 553610 654544 684428
689.43 686690 749340 739828 853736 888124 1072072
695.22 1176746 1448136 1565574 1847112 2272172 2676714
701.00 3343638 4010944 4933248 5986436 7237180 8605134
706.79 10180120 12002400 14059520 16037450 18207870 20164550
712.57 22137200 23768100 25175120 26080520 26775730 27055390
718.36 27439340 27792730 29713310 33298570 40263080 49984960
724.14 58252700 50565980 37319840 31167830 27614030 26906800
729.93 27179530 28632320 29497670 30051090 29344860 28037430
735.71 25786070 23270960 20372480 17557210 14641500 12366310
741.50 9957460 8168458 6606908 5353050 4254078 3520442
747.29 2890224 2574352 2043606 1896880 1621642 1544272
753.07 1424426 1373448 1237336 1291258 1163016 1324978
758.86 1209808 1263490 1192756 1277386 1267400 1280130
764.64 1238530 1168206 1249436 1228350 1269888 1314290
770.43 1261570 1360070 1203964 1303068 1255598 1239536
776.21 1231742 1279820 1177718 1133420 1136326 1194876
782.00 1163994 1157614 1088482 1122792 1087684 1183534
787.78 1076160 1154010 1063004 1118114 1188888 1177866
793.57 1075488 1172062 1089224 1136328 1241554 1183352
799.35 1221220 1209812 1279038 1320836 1319382 1434380
805.14 1355574 1530478 1458538 1539012 1549054 1630380
810.93 1690646 1765944 1799370 1797196 1903060 2007214
816.71 2044238 2188640 2354228 2464204 2757996 3026206
822.50 3352308 3801366 4251130 4922462 5763140 6679536
828.28 7802634 9364094 11042420 13237940 15737200 18887550
834.07 22350670 26331650 30994010 36190050 41895590 47971520
839.85 54208940 60443250 66781760 72674720 77824900 82145260
845.64 85642780 88363420 90673350 92586440 96440660 103365000
851.42 115118900 130785900 148898200 165802600 170403700 141967300
857.21 107288000 94275820 88484840 88451630 91162040 94815570
862.99 96197390 95350670 90945840 84041820 75354110 65944550
868.78 55975860 46596880 37834360 30395190 23899300 18753180
874.57 14366720 11201820 8531360 6704120 5113098 4187376
880.35 3188174 2733476 2195806 2043444 1676898 1643474
886.14 1425982 1454226 1241468 1386234 1245056 1383872
891.92 1228512 1342948 1300442 1347616 1303830 1345518
897.71 1246330 1341590 1293568 1515926 1451868 1717310
903.49 1694296 1956158 1888190 1886968 1643310 1608350
909.28 1387838 1448928 1411286 1483854 1412358 1546618
915.06 1488504 1569978 1493626 1573208 1465934 1511984
920.85 1333290 1416320 1286312 1332182 1203006 1283718
926.63 1173454 1237158 1144984 1241912 1137722 1190950
932.42 1121696 1214678 1080644 1177672 1073436 1132836
938.21 1095002 1154852 1057986 1150790 1110820 1254028
943.99 1113924 1264408 1132190 1223770 1133876 1240288
949.78 1118114 1270182 1175738 1271624 1173354 1341044
955.56 1236592 1345666 1251772 1361284 1333790 1444036
961.35 1366824 1498566 1453032 1577096 1507804 1709178
967.13 1680036 1781440 1717988 1922078 1939928 2069884
972.92 2048638 2251326 2240412 2479606 2441282 2609044
978.70 2621736 2874882 2913092 3059952 3069994 3217168
984.49 3308482 3482982 3527488 3743348 3800276 4053866
990.27 4153242 4436708 4556130 4893962 5048122 5510020
996.06 5850866 6410226 6860656 7623476 8343596 9274054
1001.85 10192980 11476660 12760750 14277010 15871990 17842990
1007.63 19892130 22087830 24411570 26702830 28926780 31149070
1013.42 33178170 34957450 36503880 37520980 38190640 37803100
1019.20 37182100 36934080 39284160 42271520 51587050 46708240
1024.99 35474010 33338250 31717810 32771500 32503080 33098710
1030.77 32029170 31211210 28840170 26932040 23981070 21684040
1036.56 18726430 16658770 14170780 12711900 10886120 10125940
1042.34 8927550 8755202 7948568 8119278 7619748 8055144
1048.13 7802374 8408768 8456876 9263610 9392276 10403920
1053.91 10733510 11876480 12415690 13888880 14620050 16605000
1059.70 17810040 20505140 22605040 25826920 28577930 32813840
1065.48 36605380 42528740 48905710 56399730 64643570 75580620
1071.27 86856100 101450600 116489000 135105400 154721500 179702900
1077.06 205460600 232030500 261061500 291529800 324073400 355527300
1082.84 380231800 411543700 436840600 467775500 488218000 519833300
1088.63 538952100 544633400 559252900 568164900 584640300 609343200
1094.41 633718500 661408200 671680100 645459600 616889900 580427100
1100.20 539918700 506596600 507469000 496903900 470896700 450588600
1105.98 419178000 381370000 339015200 295426500 249438000 206685500
1111.77 169907600 137600500 111863500 91303200 74757550 62033800
1117.55 52971840 45452080 40425230 35817180 32480490 29679350
1123.34 27639170 25788210 24475730 23081990 22282210 21283600
1129.12 20677120 19917250 19635990 19233640 19187470 19122420
1134.91 19000580 18923240 19119910 19278090 19695500 20026940
1140.70 20471520 20975220 21530190 21887870 22334930 22681690
1146.48 23101370 23666460 24316020 24852690 25688860 26873020
1152.27 28142860 29534680 30967990 31901510 31854290 31830440
1158.05 31866320 32187290 32632880 33338900 33918960 34701100
1163.84 35780170 36637820 37439420 38371220 39296440 39720680
1169.62 40118030 41071420 42021090 43665020 45086540 46850600
1175.41 48890020 51541970 54357060 57797000 60850800 64123810
1181.19 66781870 70063680 73913740 79582160 86644300 96104120
1186.98 106938600 120219600 134842300 152123600 170843800 192247800
1192.76 215227200 240092800 264325300 287844100 310920400 334905400
1198.55 356258700 376432200 393488600 409863600 424147500 440604800
1204.34 462387800 495359800 539767200 600207700 650963100 690830500
1210.12 624532200 503496600 490453200 506237700 525847300 546174300
1215.91 564346300 569522700 564748300 548062700 499656200 453526700
1221.69 405802000 353314200 311076200 274571300 247379800 225691200
1227.48 209439500 196104700 187823600 181102400 178397200 177093400
1233.26 179032800 180444700 177905700 172583800 166627600 158241600
1239.05 149263400 140085300 133762500 128804200 126667600 123211100
1244.83 121467000 120350400 119841200 119391600 119904100 118916000
1250.62 118606600 118112500 117905800 117019000 115458100 113364600
1256.40 111048100 108211700 105902500 103926500 103332800 103967900
1262.19 105723300 107579300 108419100 106880000 101478300 93531700
1267.98 82793370 74037870 68404380 63589660 60165090 56246240
1273.76 53348010 49887320 46971250 43352410 38991870 35165550
1279.55 31821010 28748250 26010530 23250700 21088490 18880340
1285.33 16936230 15101860 13665230 12226550 11094710 10012660
1291.12 9207772 8339878 7780222 7087070 6684522 6147990
1296.90 5801172 5365092 5115134 4765132 4621702 4345638
1302.69 4253430 3999968 3930800 3715616 3708568 3542218
1308.47 3541966 3411036 3407090 3294630 3331634 3192180
1314.26 3258874 3130938 3129608 3046492 3066962 2979072
1320.04 3051378 2962294 3012772 2991960 3076808 3037266
1325.83 3095438 3047244 3138410 3191488 3301556 3382016
1331.61 3569836 3731784 4012386 4326858 4780228 5323916
1337.40 6055624 6971922 8137390 9580210 11452810 13888500
1343.19 16883230 20764230 25473030 31429260 38498100 47078290
1348.97 56971680 68578320 81465580 95742630 110740600 126560500
1354.76 141830300 156405700 168583900 178491000 184685000 188302900
1360.54 189828700 194012700 204703600 231326500 277657800 333135100
1366.33 369975300 396371000 376630400 332612500 290355600 235253900
1372.11 215400800 212414100 221295000 229427100 237782800 238766900
1377.90 236250700 226191500 213738400 195691000 177700800 156375600
1383.68 137362300 117408900 104432800 97589970 110110400 134173200
1389.47 175621900 140898600 73241420 53765150 50267130 56364460
1395.25 62634010 69841420 73348660 74727080 71503990 66319380
1401.04 58568200 50399770 41699720 34291370 27321370 22023240
1406.83 17638870 14707690 12384700 10908580 9818232 9207508
1412.61 8764656 8623848 8582248 8661206 8812250 8971314
1418.40 9632128 9430678 9504222 9818010 9993252 10300540
1424.18 10414990 10708460 10880290 11154750 11338170 11734510
1429.97 11922110 12256660 12516610 12833270 13265900 13851760
1435.75 14975120 15256680 15927580 17193750 18335430 18983780
1441.54 20322110 22090150 24030280 26122500 28333350 30650680
1447.32 32968610 35016360 37405860 39619140 41981840 44206680
1453.11 46713940 49064100 51863580 55303740 58366350 63189120
1458.89 68831940 75293520 81726140 87330760 91022140 93348890
1464.68 93864870 93652010 93201520 93128540 93927370 96111610
1470.47 100210300 104870600 107547400 108671500 106615800 104102600
1476.25 103354300 99502350 96364360 93494880 90889740 88474750
1482.04 86474580 84813620 83657600 82511700 81167500 75300100
1487.82 65595220 58114920 52608760 48639880 45346310 42803440
1493.61 40109180 37821300 35374800 32029070 29401360 26449240
1499.39 23442930 20922250 18354050 16240100 14140130 12977450
1505.18 11610880 10484100 9013054 8130006 7503862 6802408
1510.96 6531740 6142116 5695218 5629332 5344806 5394998
1516.75 5238798 4940904 4879926 5187220 5255922 4785268
1522.53 4755716 4527882 4914496 4540970 4661158 4568108
1528.32 4566302 4501722 4649576 4573342 4836216 4891596
1534.11 4651928 4734938 4719944 4834102 5526828 5490312
1539.89 5124374 5297376 5229976 4826384 5185400 5035274
1545.68 4935764 4985696 5081760 5093452 5194118 5064672
1551.46 5172626 5160356 5682778 5239974 5369772 5582920
1557.25 6403882 6066322 6628370 6037990 6080820 6297386
1563.03 6485754 6799412 6910772 7131060 7323554 7566938
1568.82 8009502 7708362 7862602 7818612 8002318 7911728
1574.60 8628896 9155766 8645784 9149622 9122206 9026548
1580.39 8008498 7168336 6823686 6823894 6822198 6883748
1586.17 6839748 6712372 6417154 6051116 5525264 4939258
1591.96 4338546 3857906 3417038 3001202 2726074 2464878
1597.74 2305178 2156010 2082438 1979234 1949990 1917248
1603.53 1872852 1861404 1846288 1814982 1817168 1839914
1609.32 1839842 1824192 1951340 1882124 2028292 1911720
1615.10 2424480 2805296 1978200 2275098 2159674 2337032
1620.89 2279852 2469916 2681204 2461416 2527226 2615284
1626.67 2816590 2830796 2833002 2817720 2782018 2696760
1632.46 2690620 2659082 3288542 2806630 2610604 2696844
1638.24 2489642 2614206 2471722 2569940 2392098 2401556
1644.03 2294190 2765554 2236184 2265128 2016886 1942088
1649.81 1818608 2099052 3002442 2451416 1910280 1696648
1655.60 1565496 1618206 1507518 1537272 1462904 1449426
1661.38 1574234 1625680 1299012 1450838 1300974 1460204
1667.17 1321310 1793818 1468872 1512312 1469572 1440498
1672.96 1348502 1823048 1762950 1449594 1557006 1557964
1678.74 1648908 1772772 1648682 1999630 2076672 2888412
1684.53 2580948 2071200 2468788 2444614 2734296 2779988
1690.31 3061404 3119880 3466946 3472366 4157490 4926606
1696.10 4046066 4448306 4447556 5474348 5239370 4831296
1701.88 4947292 5119962 5310810 5376486 5652644 5561150
1707.67 5668360 5518074 5235192 4706064 4375054 4359282
1713.45 4520926 4624760 4347890 4955652 4382114 3875620
1719.24 3460802 3152802 2791418 2532788 2235734 1967636
1725.02 1807286 1702274 1587040 1529962 1574464 1503448
1730.81 1424064 1613890 1975194 1939454 1443006 1363560
1736.60 1493944 1369364 1710112 1572206 1390180 1463318
1742.38 1522076 1485244 1455950 1448312 1500306 1498688
1748.17 1604402 1394248 1763380 1514136 1313652 1393892
1753.95 1299498 1358730 1499382 1335134 1308950 1311844
1759.74 1226068 1475770 1276744 1158950 1154716 1098078
1765.52 1102874 1143880 1291510 972836 1146886 1155106
1771.31 1417642 1345966 948334 1118660 994052 988070
1777.09 922248 972094 958134 1035474 939502 1014038
1782.88 972856 1164196 1041920 1110854 1113526 1212388
1788.66 1219100 1416970 1431196 1797268 1642740 1634590
1794.45 1809596 1878270 2051836 2177260 2463700 2591850
1800.24 2733840 2952400 3059360 3202522 3354446 3533944
1806.02 3699266 3875468 4001740 4198610 4411656 4501848
1811.81 4618222 4716972 4752592 4729962 4763510 4812388
1817.59 4815448 4809536 4851482 4849494 4790988 4691364
1823.38 4577542 4406022 4003396 3861566 3726606 3657048
1829.16 3614278 3263466 3042582 2865212 2612904 2375712
1834.95 2125864 1916044 1728310 1563576 1480378 1317888
1840.73 1308692 1160666 1340468 1423904 1053902 1142518
1846.52 1056354 1116124 1013406 1067808 1006972 1032568
1852.30 971564 993502 942834 975258 970360 967752
1858.09 979604 973032 952506 975000 992104 998724
1863.88 1019532 1006660 1062314 1085288 1126166 1184930
1869.66 1035272 1096304 1027836 1089350 1057600 1103176
1875.45 1084006 1154958 1169396 1237654 1164666 1130092
1881.23 1082942 1136900 1154602 1223124 1196510 1245982
1887.02 1239054 1305646 1279274 1225818 1232186 1229106
1892.80 1242800 1302686 1331296 1299224 1294446 1260760
1898.59 1295114 1300872 1327702 1359308 1370550 1456008
1904.37 1475980 1574366 1587676 1579944 1592082 1643132
1910.16 1677574 1756340 1834988 1975220 2021062 2212706
1915.94 2312284 2588146 2651996 2806906 2997072 3209958
1921.73 3472074 3696484 3916294 4175030 4451504 4752740
1927.51 5063876 5397364 5744376 6149050 6534162 6965518
1933.30 7159490 7309838 7530008 7837800 8137794 8398198
1939.09 8682534 8939688 9173438 9309464 9290666 9306700
1944.87 9124386 9058386 8946870 8917612 8838786 8799960
1950.66 8568582 8280456 8035560 7450254 6931256 6638762
1956.44 6320944 6043730 5585840 5215268 4703708 4246310
1962.23 3713122 3248034 2738272 2343372 1984152 1714492
1968.01 1489984 1305156 1151180 1041622 932498 892322
1973.80 820630 816510 778612 749626 687672 702552
1979.58 688824 690182 630692 657986 615642 636074
1985.37 609254 629880 628646 628706 614322 634992
1991.15 660134 628600 590856 602258 601036 632232
1996.94 575720 611056 628468 613242 630896 626878
2002.73 611054 622356 612928 635974 613412 646974
2008.51 635074 681284 637950 656822 667360 686032
2014.30 667932 702026 706690 725926 696478 727176
2020.08 760140 814048 800574 833218 843736 910800
2025.87 887374 927804 977098 974186 1023696 1123220
2031.65 1158778 1240616 1316590 1439978 1511900 1672138
2037.44 1708100 1852702 1968240 2151924 2290566 2478188
2043.22 2659722 2878632 2997528 3218426 3361140 3546674
2049.01 3753788 3936096 4037644 4200664 4327296 4474396
2054.79 4613386 4783868 4952976 5109078 5224008 5337686
2060.58 5278500 5062876 4599486 4419164 4352102 4403800
2066.37 4408830 4446084 4317142 4073470 3799176 3490980
2072.15 3177182 2821716 2544434 2374562 2245754 2194412
2077.94 2038946 2076840 2035970 2182230 2109840 2156120
2083.72 2147118 2269284 2368978 2359632 2545106 2710232
2089.51 3023804 3025414 2987598 2878522 2818662 2748934
2095.29 2499174 2556084 2533872 2827508 2624888 2760570
2101.08 2713686 2948690 2758278 2660208 2591194 2684036
2106.86 2673506 2413454 2474620 2472764 2741128 2494334
2112.65 2569096 2445092 2627246 2316412 2299918 2232726
2118.43 2593134 2428402 2324182 2252440 2400054 2286312
2124.22 1980644 1949362 1951266 1987908 1708186 1737650
2130.01 1656080 1711032 1440612 1480800 1409736 1495580
2135.79 1303356 1355046 1306920 1392944 1313322 1386800
2141.58 1379076 1492468 1496308 1635768 1757504 1908476
2147.36 1957778 2105108 2264336 2488564 2595046 2830880
2153.15 3134340 3478794 3624668 3997368 4425840 4797604
2158.93 4974678 5496686 6054148 6444310 6686790 7322362
2164.72 7830874 8160706 8445570 9145022 9531980 9782842
2170.50 10010990 10612130 10743450 10778220 11228120 11781690
2176.29 11768280 11754230 11894250 11948940 11427440 11379110
2182.07 11012650 10247840 9737748 9624664 9309806 8767592
2187.86 8230604 7711600 6919324 6126948 5449584 4795046
2193.64 4004162 3545306 3237836 2845438 2414696 2321260
2199.43 2047012 1788978 1666930 1574886 1356318 1298240
2205.22 1261194 1190410 1070920 1164670 1084456 1040514
2211.00 1054678 1107136 1024332 1115670 1104946 1155544
2216.79 1146666 1235606 1249816 1322418 1342798 1350824
2222.57 1279480 1334910 1352760 1377920 1278046 1221332
2228.36 1208570 1251296 1278942 1325170 1280010 1296862
2234.14 1220744 1204874 1137578 1124870 1044200 1035386
2239.93 997628 1027194 1038088 1077984 1062476 1133576
2245.71 1109708 1103580 1108956 1181256 1153358 1256780
2251.50 1297854 1381084 1397138 1545202 1536408 1645350
2257.28 1642850 1726870 1773154 1878714 1865780 1979212
2263.07 2033658 2167672 2298940 2505774 2556572 2686812
2268.86 2647496 2610222 2507890 2591756 2604078 2764912
2274.64 2820560 2897096 2854338 2856066 2775418 2789428
2280.43 2738714 2760582 2719486 2723126 2609544 2581286
2286.21 2453992 2397278 2296356 2301208 2212454 2220030
2292.00 2166572 2194534 2124134 2104534 1972506 1936058
2297.78 1820626 1814644 1704008 1737492 1642334 1661328
2303.57 1540372 1553252 1416694 1381838 1303990 1230890
2309.35 1200880 1161586 1182258 1042370 1146646 962926
2315.14 1037410 847974 931166 789494 858862 701460
2320.92 774486 629914 729072 603834 695110 613806
2326.71 619734 580562 644364 607824 651290 668410
2332.50 678556 732556 768084 781312 847520 896228
2338.28 933800 998826 1079972 1210070 1268256 1348462
2344.07 1432624 1527722 1632746 1786260 1858148 1928966
2349.85 1932806 1967234 1927692 2014972 2003202 2063752
2355.64 2013142 2054986 2056102 2109526 2123298 2175504
2361.42 2140804 2191532 2106486 2143110 2101622 2166610
2367.21 2114750 2162468 2149088 2174026 2089534 2141086
2372.99 2046760 2057738 2004160 2011762 1901402 1953496
2378.78 1908452 1894078 1826044 1854740 1818716 1850702
2384.56 1804808 1868612 1788816 1790198 1687266 1686018
2390.35 1589150 1603538 1500682 1533388 1467710 1471808
2396.14 1413854 1438606 1390826 1413344 1355002 1380024
2401.92 1326126 1359024 1317424 1371518 1358190 1381358
2407.71 1328088 1422362 1357272 1466756 1401066 1480202
2413.49 1434360 1494210 1397512 1527988 1448724 1452760
2419.28 1349116 1409314 1344866 1356742 1309002 1327700
2425.06 1233396 1206670 1112560 1041410 924854 919012
2430.85 743458 787144 653820 669196 576858 614350
2436.63 548648 548568 516426 553294 484204 513732
2442.42 443310 474394 432824 463086 420678 480522
2448.20 418900 479122 397966 483640 440932 515510
2453.99 465226 576324 525888 601914 581464 654668
2459.77 617784 700306 650552 734612 712026 765046
2465.56 730990 841282 762428 846538 834350 897330
2471.35 827108 927822 861422 978480 929066 969940
2477.13 867022 962422 864544 924648 853778 925764
2482.92 846466 881088 786540 816136 734148 791148
2488.70 742074 766394 633776 692668 614834 675754
2494.49 556352 638580 527656 598568 539886 571066
2500.27 503676 557542 479078 535064 412190 501432
2506.06 409310 474978 427994 459512 370324 435286
2511.84 386860 412092 320018 408770 366760 389292
2517.63 369014 438506 371478 447450 361300 435012
2523.41 379898 432922 405976 434872 446888 492344
2529.20 414290 503892 496880 504376 492310 563620
2534.99 547006 658784 604364 761538 682132 775268
2540.77 762878 867114 836128 917104 926584 995270
2546.56 982238 1088768 1035758 1116514 1107694 1200904
2552.34 1157436 1300282 1271084 1386748 1363308 1498196
2558.13 1482392 1611804 1571306 1721530 1741616 1856288
2563.91 1846146 2013656 2014654 2172754 2217258 2353332
2569.70 2386018 2583912 2530950 2725520 2718772 2915750
2575.48 2904020 3122886 3167618 3381082 3385376 3534612
2581.27 3610176 3858922 3983916 4186542 4203712 4358072
2587.05 4272400 4338034 4233780 4268430 4170852 4309144
2592.84 4301762 4469380 4463424 4585614 4582764 4736400
2598.63 4654098 4742832 4668288 4782748 4714922 4842942
2604.41 4775904 4906116 4890660 5016096 4990874 5074410
2610.20 5086778 5154954 5124200 5247762 5231984 5334906
2615.98 5305910 5448546 5417736 5520348 5359854 5488926
2621.77 5409418 5527706 5417514 5461280 5293626 5310298
2627.55 5111238 5161090 4963240 5008162 4890214 4924942
2633.34 4848168 4881552 4725776 4738746 4573248 4666166
2639.12 4537110 4710788 4583260 4692356 4604354 4648048
2644.91 4503950 4558836 4379072 4413008 4270452 4403310
2650.69 4311778 4393476 4283624 4374176 4282152 4301684
2656.48 4154646 4181458 4050820 4157004 4046914 4085684
2662.27 3984138 4014234 3869066 3912308 3736776 3760956
2668.05 3629294 3721704 3558976 3650010 3510142 3619840
2673.84 3478544 3505456 3457566 3496498 3400158 3442882
2679.62 3337676 3392416 3260984 3383404 3200530 3360888
2685.41 3199948 3264334 3148186 3274612 3147726 3210580
2691.19 3088024 3233088 3115814 3223352 3139458 3233394
2696.98 3117410 3290062 3206842 3376162 3326376 3507668
2702.76 3487592 3688662 3707812 3934490 3950150 4145038
2708.55 4186878 4422174 4508848 4784964 4828676 5202398
2714.33 5317872 5751244 5876054 6219256 6276386 6603432
2720.12 6629700 6905072 6879254 7080538 7188282 7500988
2725.91 7593762 7724712 7613898 7736934 7598628 7769206
2731.69 7679722 7776310 7647194 7756976 7682338 7785610
2737.48 7653280 7620924 7397328 7408468 7191596 7178714
2743.26 6977894 6980198 6886294 6954656 6810156 6856490
2749.05 6619172 6580550 6234568 6203542 6013890 6131006
2754.83 5942346 6063574 5955572 6137976 6049914 6182118
2760.62 6079078 6205652 6107598 6246624 6054834 6242900
2766.40 6082792 6289928 6238188 6405032 6389958 6572666
2772.19 6581396 6831256 6731250 6945982 6772552 7002846
2777.97 6870200 7156106 7116330 7473012 7589412 8002502
2783.76 8137560 8493884 8574822 8958648 9081880 9532620
2789.54 9660628 10132290 10332570 10874310 11144510 11690320
2795.33 12024110 12724300 13192790 14070520 14580980 15700050
2801.12 16470350 17815780 18828790 20343500 21620060 23557190
2806.90 25668200 28770520 32072650 36328930 40470800 45554690
2812.69 50980360 57547600 64371690 71957060 79478850 87301290
2818.47 94234980 101185300 107095600 113618900 119964600 129058800
2824.26 142195100 163014800 175954800 172441000 159682100 149467100
2830.04 146166200 150153000 163078100 184014100 203115400 209150900
2835.83 193797400 170669900 151006300 138823700 132888700 130992300
2841.61 130310000 129745100 127008700 122353800 115275600 106948900
2847.40 97387820 88313190 79156030 71302840 64235010 58890780
2853.18 54357740 51527270 49335640 48468580 47851890 48587020
2858.97 49214920 50950000 52499760 54878550 56990100 59883750
2864.76 62602080 66027520 69288180 73390600 77229980 82054550
2870.54 86667950 91917830 96912380 102769800 107999100 113897200
2876.33 118862900 124464900 129522200 135094800 139994800 145414500
2882.11 150213400 155261800 159895500 165400300 170565400 177037400
2887.90 183339500 191237300 199286400 208385600 215699800 223091700
2893.68 228982800 234729000 240316100 246627300 251864100 257898300
2899.47 262843800 268415200 272795900 277766400 282326700 287685600
2905.25 291726100 294282400 294918900 295439100 295859800 298536800
2911.04 302451400 307749400 313110400 318678400 322045200 323614200
2916.82 321679100 319235100 314088200 309385900 304464400 302140900
2922.61 300770200 301828000 302297200 302977700 302125200 301834200
2928.40 300728300 301614400 302019400 304438500 306391400 309575900
2934.18 311688800 315322100 317536600 321107900 323377200 326633600
2939.97 329294600 332950200 335388000 338113200 338776900 341144200
2945.75 342039200 345422100 346886000 348932100 346736900 343873200
2951.54 337108000 331654000 324768300 321924900 319540300 322164100
2957.32 325082400 333218100 341910000 356693300 374028900 398172400
2963.11 423650000 455984700 485893500 521295900 556590200 598370300
2968.89 637507300 683406800 724091500 775242200 822457200 883802000
2974.68 958625000 1061671000 1050761000 941617300 928379400 1020657000
2980.46 1055073000 1015189000 1067961000 1207000000 1290642000 1306526000
2986.25 1220265000 1032158000 907208300 813795100 765073800 726767400
2992.04 702220600 669401000 635451800 589385300 541913500 486572000
2997.82 433929900 377660500 327851400 278360800 236871200 197708800
3003.61 166993300 138490700 117330300 97882300 84138090 71101230
3009.39 62745050 54079890 49023120 43260860 40323140 36283570
3015.18 34514330 31457560 30409720 27965970 27313970 25297020
3020.96 24876150 23179590 22945100 21439540 21385270 19900280
3026.75 19872690 18640090 18657460 17528450 17583220 16524480
3032.53 16666850 15728040 15912730 14990080 15144710 14289730
3038.32 14517530 13681150 13998620 13198500 13368290 12741600
3044.10 12914720 12250570 12522190 11892000 12146250 11622990
3049.89 11843790 11343320 11698790 11072270 11397840 10934230
3055.67 11214030 10806330 11104880 10645370 10992830 10597460
3061.46 10892040 10592740 10908540 10522840 10862210 10532530
3067.25 10767540 10376670 10656410 10336690 10542300 10171270
3073.03 10410790 10051050 10269380 9891982 10073290 9682398
3078.82 9822716 9397872 9572568 9132016 9245766 8839260
3084.60 8941766 8470314 8643736 8171018 8260056 7844762
3090.39 7924902 7565170 7655918 7235086 7365206 6986090
3096.17 7129260 6692112 6777574 6466976 6580288 6258300
3101.96 6392272 6116302 6248692 5888292 6055190 5807118
3107.74 5986742 5730214 5883072 5558380 5746320 5498186
3113.53 5765902 5547770 5660056 5460210 5650242 5475138
3119.31 5645748 5433108 5687258 5416456 5627456 5490476
3125.10 5647360 5502968 5798062 5620360 5820950 5685508
3130.89 5892792 5783208 6038100 5857358 6121306 6068106
3136.67 6273510 6226800 6447578 6359718 6575492 6515622
3142.46 6761866 6625550 6859914 6770940 6909084 6798942
3148.24 6961906 6876108 7044578 6883578 7016442 6751862
3154.03 6947258 6784484 6949092 6711562 6835012 6688612
3159.81 6701590 6520928 6638598 6379392 6550712 6263738
3165.60 6408206 6194280 6382008 6165322 6296106 6148938
3171.38 6347646 6132712 6282968 6138094 6324792 6126132
3177.17 6318546 6237874 6383310 6288226 6412326 6301848
3182.95 6461396 6387254 6554582 6422896 6580532 6476550
3188.74 6595678 6490094 6672816 6566894 6675136 6510258
3194.53 6727092 6607746 6701558 6567212 6607972 6529320
3200.31 6630826 6522804 6598486 6497446 6556342 6441768
3206.10 6547888 6425478 6558910 6467486 6579430 6401782
3211.88 6581438 6510412 6603828 6570376 6778232 6700010
3217.67 6853728 6827020 7019728 6999668 7199122 7127034
3223.45 7348214 7341508 7547710 7555292 7612148 7595606
3229.24 7708762 7628418 7765234 7644824 7837164 7680306
3235.02 7692310 7568486 7626934 7459636 7507342 7294010
3240.81 7280364 7041536 6969438 6745310 6703070 6439018
3246.59 6377692 6090742 5979334 5647774 5571102 5268084
3252.38 5160598 4870984 4849046 4463114 4330808 4066794
3258.17 3971368 3709692 3690162 3354838 3322962 3048740
3263.95 3058840 2788390 2728268 2573690 2538380 2291894
3269.74 2292544 2087412 2076316 1937980 1964524 1816418
3275.52 1847976 1675884 1711950 1606534 1643300 1522270
3281.31 1521820 1419500 1480916 1382574 1483710 1328960
3287.09 1331148 1263728 1247056 1245162 1280118 1245366
3292.88 1265754 1234206 1252332 1229742 1295394 1253932
3298.66 1312090 1310766 1398868 1405746 1543482 1542582
3304.45 1630268 1595186 1750720 1721290 1855562 1888930
3310.23 1980194 1932552 2085480 2094514 2300266 2238560
3316.02 2436642 2390430 2473884 2497490 2450362 2458180
3321.80 2477614 2346632 2399836 2352370 2449448 2383358
3327.59 2510532 2496652 2502148 2332320 2378970 2288442
3333.38 2304128 2192682 2201516 2099312 2132948 2064554
3339.16 2132522 2019024 2003466 1903780 2105568 2042054
3344.95 2072514 1997386 2048526 1879584 1822428 1773992
3350.73 1723634 1680446 1758340 1574736 1656828 1568364
3356.52 1536946 1436722 1431246 1372114 1445564 1286822
3362.30 1356394 1230696 1281280 1186154 1189246 1175866
3368.09 1199018 1175480 1305666 1262094 1387584 1270326
3373.87 1405122 1433506 1522444 1547976 1716792 1640980
3379.66 1828516 1814676 1975118 2018176 2147926 2249874
3385.44 2398408 2355528 2403596 2335420 2411882 2325500
3391.23 2392682 2249358 2326068 2244408 2368414 2239218
3397.02 2209028 2009484 2046438 1940006 1904428 1724134
3402.80 1831720 1594696 1570068 1527630 1490154 1426106
3408.59 1380430 1210890 1233352 1091152 1152282 1044988
3414.37 1082316 1003578 1129112 1059430 1129716 1105178
3420.16 1116996 1123140 1248460 1177194 1304044 1254452
3425.94 1366718 1334522 1466866 1459198 1630112 1542456
3431.73 1647038 1580010 1587640 1646476 1687420 1684904
3437.51 1764244 1659362 1706426 1717802 1645408 1636546
3443.30 1637744 1467120 1560282 1442060 1433654 1287250
3449.08 1308774 1153406 1167494 1103358 1141586 1033840
3454.87 1016060 925530 885368 857120 861768 752344
3460.66 851934 800236 883470 790462 836566 749022
3466.44 805030 828594 843662 911052 921076 911956
3472.23 957260 1009936 1003586 1022336 1137178 1192396
3478.01 1264496 1224538 1262904 1208578 1300778 1179206
3483.80 1243222 1179528 1172192 1097078 1178418 1065544
3489.58 1053570 1012986 1030784 1001674 972336 833018
3495.37 885758 724128 768072 654036 683076 578804
3501.15 581572 482158 475208 456684 442854 294094
3506.94 370214 298516 336976 252356 287630 229452
3512.72 235916 145826 149480 184034 233324 100354
3518.51 206994 78234 181938 108820 196464 156766
3524.30 122540 47908 153806 56436 173390 43132
3530.08 169232 44740 67194 67460 100592 90304
3535.87 148628 69982 162984 69730 114174 73370
3541.65 118236 19734 163622 52480 156256 157338
3547.44 100126 62056 83748 139282 133952 39646
3553.22 99816 85006 90386 86660 107926 98060
3559.01 72814 54674 110984 32400 119824 53724
3564.79 181184 146974 187764 140076 66602 14650
3570.58 67352 38180 23690 62320 77064 58324
3576.36 18292 94836 135034 38214 44850 63852
3582.15 42056 35276 113682 167120 164868 114402
3587.94 284620 50872 83266 42424 153052 56564
3593.72 90894 130390 50570 56376 114122 92394
3599.51 142222 148950 100294 108980 72628 54908
3605.29 174520 230998 92148 369738 210194 19330
3611.08 288266 226468 180656 221802 112934 155150
3616.86 201770 150428 432240 59094 172154 71558
3622.65 131416 55650 143232 82646 217208 384870
3628.43 583752 236288 110614 112722 142980 200118
3634.22 57500 77442 85964 94310 151402 50682
3640.00 139962 44178 140858 53668 172258 43486
3645.79 334526 232536 342896 554288 224760 293406
3651.57 38906 123008 28210 212654 421632 113616
3657.36 101552 108238 61998 116210 94852 134876
3663.15 166466 124654 173514 135004 207510 389956
3668.93 273746 791980 183008 207526 232998 479192
3674.72 742282 431320 199410 283604 332036 270922
3680.50 194346 265212 218586 307010 219944 412036
3686.29 201082 994350 580642 292362 627872 361816
3692.07 344832 344450 417392 392404 393924 397472
3697.86 444532 428962 459866 653264 527740 503042
3703.64 465824 522924 477050 506182 557374 818496
3709.43 577096 661230 1057334 494616 540080 523736
3715.21 471916 362574 469936 462488 388140 337846
3721.00 553364 437298 348220 411666 413742 461166
3726.79 369894 324474 305434 316546 545162 740720
3732.57 192034 620208 397058 679390 507432 406418
3738.36 339350 369262 320468 380178 274968 1193420
3744.14 1159836 160372 489718 291130 850460 882092
3749.93 158174 1011108 732804 210350 388678 305470
3755.71 460904 311920 348406 557870 439662 316664
3761.50 412594 383332 382250 461098 470468 396366
3767.28 444650 451846 711944 364598 473944 399982
3773.07 496956 446706 504410 506046 491590 538834
3778.85 679362 510994 578042 594702 613462 549480
3784.64 608472 599270 681106 582188 649930 633724
3790.43 603468 545328 683404 560870 645774 755528
3796.21 737798 607354 750988 586188 1277348 1043920
3802.00 666536 733628 619560 678664 1104030 820756
3807.78 602942 829074 628980 754270 668770 815600
3813.57 647034 1182434 1362362 671048 919620 825640
3819.35 1038382 1212092 1091828 805160 937812 934302
3825.14 1007964 1037878 975248 1015272 980632 1044992
3830.92 1232706 1027608 1072160 1237840 1174478 940658
3836.71 1814022 1264904 1059630 1229566 1168712 1019134
3842.49 1172438 1112106 984884 1033922 962650 1013636
3848.28 991732 966696 1078792 1684440 1082388 2168940
3854.07 1239846 860900 1120916 944476 934552 957042
3859.85 1013836 1102092 1037508 1055832 1256764 1305968
3865.64 964568 1164452 1126814 1411514 1540770 1096930
3871.42 1195250 1332070 1519438 1316698 1391278 1397058
3877.21 1423940 1552460 1706102 1614128 1567866 1665142
3882.99 1670188 1786702 2130006 1757470 1845582 1927658
3888.78 1924874 2096314 2251538 1961034 2158870 2140206
3894.56 2147570 2088364 2204342 2231356 2514278 2260844
3900.35 2479732 2612232 2399064 2757822 2568584 2537078
3906.13 2542030 2583726 2635558 2668662 2705410 2784622
3911.92 2821744 2877104 2885320 3003740 3113928 3045606
3917.70 2971944 3084860 3141062 3050020 3042468 3139412
3923.49 3194580 3213348 3094300 3141964 3047788 3091830
3929.28 2925414 2858046 2906510 2781434 2725842 2787240
3935.06 2604426 2635134 2542162 2393954 2382200 2325966
3940.85 2228434 2250656 2147650 2052288 2061428 2086088
3946.63 2052286 2065448 1985804 1984162 2023450 2040486
3952.42 2085524 2049106 2065724 2100732 2161054 2192440
3958.20 2188798 2174648 2221316 2265058 2225146 2299224
3963.99 2251788 2282252 2319334 2389654 2375700 2442258
3969.77 2451040 2489932 2459604 2522154 2513046
##END=
