##TITLE=2-Bromo-1-chloro-2-methylpropane
##JCAMP-DX=4.24
##DATA TYPE=INFRARED SPECTRUM
##ORIGIN=NIST Mass Spectrometry Data Center
##OWNER=NIST Standard Reference Data Program
Collection (C) 2009 copyright by the U.S. Secretary of Commerce
on behalf of the United States of America. All rights reserved.
##CAS REGISTRY NO=2074-80-8
##MOLFORM=C 4 H 8 Br Cl
##$NIST SOURCE=MSDC-IR
##SPECTROMETER/DATA SYSTEM=HP-GC/MS/IRD
##STATE=gas
##XUNITS=1/CM
##YUNITS=ABSORBANCE
##XFACTOR=1.0
##YFACTOR=0.000001000
##DELTAX=4.0
##FIRSTX=550.0
##LASTX=3846.0
##FIRSTY=0.000718
##MAXX=3846
##MINX=550
##MAXY=0.01
##MINY=0
##NPOINTS=825
##XYDATA=(X++(Y..Y))
550.0 718 674 744 979 1416 2142 2905 3525 3985 4230
590.0 4073 3581 2994 2552 2049 1403 801 418 226 169
630.0 155 156 122 82 97 91 23 16 87 109
670.0 77 83 78 124 240 316 540 1087 1893 3078
710.0 4403 5347 5723 5477 4407 2637 1201 681 695 895
750.0 1135 1358 1488 1448 1318 1014 623 404 353 396
790.0 461 498 583 683 698 756 761 623 513 452
830.0 432 323 210 190 115 73 66 35 53 105
870.0 173 242 271 328 402 407 376 301 209 132
910.0 73 53 87 107 115 138 212 281 309 350
950.0 413 527 688 897 1131 1466 1767 1848 1783 1588
990.0 1249 815 518 368 284 234 213 253 253 224
1030.0 222 242 216 229 302 374 406 438 457 413
1070.0 443 540 699 1023 1580 2487 3981 6095 8327 9787
1110.0 10000 9264 7277 4352 2301 1386 960 797 707 702
1150.0 744 691 620 574 541 485 453 450 453 509
1190.0 588 729 925 1087 1189 1237 1217 1196 1142 1046
1230.0 989 932 894 852 766 720 682 644 670 805
1270.0 966 1035 1070 1068 988 856 768 691 625 508
1310.0 324 200 145 96 82 90 140 166 169 274
1350.0 456 707 1039 1483 2053 2704 3467 3898 3954 3944
1390.0 3578 2979 2352 1701 1143 795 627 591 678 870
1430.0 1177 1527 1843 2155 2499 2751 2846 2814 2716 2467
1470.0 2064 1676 1283 885 579 384 281 211 170 134
1510.0 115 116 117 120 85 53 63 67 64 82
1550.0 76 73 105 92 43 24 38 42 33 9
1590.0 12 37 37 55 31 1 11 21 24 18
1630.0 16 24 25 21 35 56 61 62 73 68
1670.0 48 36 45 43 41 53 66 77 61 44
1710.0 35 30 49 57 28 20 15 1 6 6
1750.0 13 18 15 22 28 24 23 27 20 22
1790.0 22 6 19 27 34 21 24 43 32 37
1830.0 33 24 30 32 39 40 32 19 11 28
1870.0 32 24 41 65 51 37 31 27 32 23
1910.0 32 33 22 31 18 0 9 15 27 45
1950.0 47 52 47 31 31 37 31 34 47 59
1990.0 59 55 48 44 39 39 34 38 52 45
2030.0 32 38 36 28 53 61 46 47 42 16
2070.0 18 34 38 53 43 39 46 44 32 23
2110.0 23 7 17 28 41 44 45 51 38 42
2150.0 56 65 65 81 85 71 62 75 83 80
2190.0 82 68 82 88 77 77 73 64 47 48
2230.0 39 27 33 42 48 53 50 49 37 30
2270.0 37 51 48 46 53 55 55 50 42 34
2310.0 52 75 75 68 77 78 83 67 51 54
2350.0 65 59 64 75 61 47 53 61 56 73
2390.0 62 45 65 70 53 25 40 52 35 29
2430.0 20 16 3 14 29 31 46 50 44 63
2470.0 55 23 38 51 44 50 37 9 7 23
2510.0 73 73 42 46 50 37 43 64 75 45
2550.0 33 58 58 36 32 54 51 66 72 65
2590.0 48 27 44 66 63 56 47 37 64 90
2630.0 87 79 65 66 81 66 59 77 98 91
2670.0 77 69 73 104 122 137 128 101 129 146
2710.0 113 114 134 145 145 130 126 129 156 160
2750.0 132 113 93 97 108 122 111 90 78 71
2790.0 74 67 100 131 161 204 236 237 236 250
2830.0 296 330 330 371 424 487 583 704 820 945
2870.0 1087 1212 1277 1309 1338 1304 1266 1273 1320 1401
2910.0 1523 1695 1929 2220 2623 3090 3546 3912 3920 3651
2950.0 3240 2743 2352 2218 2514 3236 4202 5239 6057 6555
2990.0 6702 6140 5210 4324 3359 2461 1788 1309 937 661
3030.0 486 387 307 225 184 132 105 112 123 141
3070.0 126 127 154 132 130 128 131 150 134 110
3110.0 104 125 126 128 117 128 131 82 78 108
3150.0 90 79 101 116 93 110 142 153 140 111
3190.0 114 96 105 121 90 119 152 178 195 176
3230.0 164 144 162 167 182 212 184 159 153 152
3270.0 161 116 82 90 89 71 78 81 77 100
3310.0 105 62 54 54 17 53 51 18 17 48
3350.0 55 55 91 98 99 82 67 91 126 125
3390.0 97 95 113 129 102 99 154 105 23 14
3430.0 38 75 95 106 81 84 114 106 56 13
3470.0 16 80 93 32 31 42 47 76 66 35
3510.0 53 81 91 76 96 108 98 139 101 38
3550.0 55 73 80 96 119 109 53 35 65 69
3590.0 69 60 92 93 80 69 46 62 97 98
3630.0 101 146 84 63 56 37 59 70 72 66
3670.0 89 52 37 121 171 122 96 119 129 118
3710.0 85 76 121 122 121 167 169 147 135 95
3750.0 96 116 96 105 112 99 66 43 83 85
3790.0 70 102 109 94 94 114 103 94 101 122
3830.0 156 145 146 142 75
##END=
