##TITLE=1,2-Epoxycyclopentane
##JCAMP-DX=4.24
##DATA TYPE=INFRARED SPECTRUM
##ORIGIN=NIST Mass Spectrometry Data Center
##OWNER=NIST Standard Reference Data Program
Collection (C) 2009 copyright by the U.S. Secretary of Commerce
on behalf of the United States of America. All rights reserved.
##CAS REGISTRY NO=285-67-6
##MOLFORM=C 5 H 8 O
##$NIST SOURCE=MSDC-IR
##SPECTROMETER/DATA SYSTEM=HP-GC/MS/IRD
##STATE=gas
##XUNITS=1/CM
##YUNITS=ABSORBANCE
##XFACTOR=1.0
##YFACTOR=0.000001800
##DELTAX=4.0
##FIRSTX=550.0
##LASTX=3846.0
##FIRSTY=0.000225
##MAXX=3846
##MINX=550
##MAXY=0.018
##MINY=0
##NPOINTS=825
##XYDATA=(X++(Y..Y))
550.0 125 186 126 129 84 69 99 130 86 53
590.0 103 140 106 122 158 172 186 238 334 363
630.0 379 422 454 520 584 581 550 542 535 485
670.0 403 346 304 241 203 167 124 68 55 71
710.0 60 56 48 59 38 12 31 31 16 42
750.0 72 60 61 79 84 102 124 164 209 259
790.0 360 463 605 848 1233 1720 2305 2972 3589 3891
830.0 3891 4054 6261 8666 5853 3382 3798 3773 3318 2559
870.0 1784 1170 769 569 520 560 705 928 1195 1424
910.0 1590 1758 1962 2147 2168 1977 2010 2006 1548 1294
950.0 1242 1065 811 556 380 274 206 159 167 238
990.0 307 392 487 532 531 544 670 641 477 494
1030.0 498 433 315 242 216 193 205 237 256 279
1070.0 331 366 358 359 475 611 488 306 277 262
1110.0 230 184 140 113 80 48 28 45 53 37
1150.0 33 44 58 67 91 98 114 189 261 330
1190.0 389 414 420 447 661 922 766 564 595 621
1230.0 589 589 714 663 417 349 390 408 396 387
1270.0 450 561 713 892 1043 1122 1167 1248 1221 1047
1310.0 955 867 651 405 241 133 67 57 57 63
1350.0 85 123 185 288 407 534 687 830 930 1034
1390.0 1163 1278 1246 1069 989 988 958 916 895 897
1430.0 891 934 1076 1213 1177 1103 1114 1089 1008 918
1470.0 851 710 542 460 406 335 256 176 125 111
1510.0 90 67 67 68 51 41 53 62 62 65
1550.0 67 79 88 84 69 61 77 84 69 45
1590.0 44 44 35 34 33 38 47 52 44 38
1630.0 37 39 44 49 57 57 62 69 61 63
1670.0 64 65 66 66 48 32 42 47 48 43
1710.0 31 25 31 38 44 46 47 43 44 47
1750.0 40 48 50 48 43 50 57 52 46 35
1790.0 31 34 36 22 17 27 29 20 13 14
1830.0 20 18 17 21 32 35 29 28 19 19
1870.0 24 23 29 26 27 42 46 39 42 53
1910.0 50 38 39 42 43 46 42 39 41 36
1950.0 36 28 14 15 31 38 34 43 56 59
1990.0 62 71 68 74 81 78 78 76 74 58
2030.0 48 53 62 60 59 65 60 60 63 63
2070.0 70 81 90 85 81 78 81 86 87 96
2110.0 92 73 71 68 71 74 61 63 64 64
2150.0 63 64 71 72 73 79 83 88 91 88
2190.0 96 98 90 96 105 117 122 118 125 125
2230.0 117 113 114 105 87 87 90 88 83 67
2270.0 44 39 59 65 67 76 77 70 68 74
2310.0 86 94 97 99 96 97 96 101 90 74
2350.0 70 78 87 78 68 70 64 51 43 41
2390.0 31 24 30 36 39 36 46 45 35 33
2430.0 29 25 27 33 33 29 36 39 43 48
2470.0 38 31 32 27 24 34 36 26 28 42
2510.0 41 32 27 36 44 30 17 18 13 13
2550.0 34 45 38 43 49 53 51 47 45 36
2590.0 43 57 52 48 50 52 56 55 42 39
2630.0 48 52 39 29 43 54 58 66 64 43
2670.0 47 68 75 64 58 70 73 67 67 72
2710.0 76 76 71 75 76 78 84 86 92 96
2750.0 97 102 108 112 115 115 106 110 130 147
2790.0 154 162 177 195 212 231 280 345 421 532
2830.0 675 883 1155 1451 1743 2001 2267 2531 2677 2723
2870.0 2685 2606 2622 2682 2677 2754 3009 3359 3726 4076
2910.0 4555 5132 5590 6130 6731 7110 7488 7897 8158 8640
2950.0 9607 10000 9706 9601 9916 9506 8456 8116 9044 8203
2990.0 5249 4137 4053 4154 4369 4593 4879 5233 5587 5731
3030.0 6033 6950 7533 6304 4735 4155 3679 2947 2117 1413
3070.0 883 559 389 267 183 156 148 138 109 97
3110.0 108 123 112 100 100 98 79 62 67 69
3150.0 66 46 35 37 38 41 52 46 33 34
3190.0 43 45 40 37 34 23 13 39 48 17
3230.0 25 34 34 61 65 47 47 48 52 61
3270.0 66 72 74 69 48 34 45 50 48 52
3310.0 37 33 53 43 52 59 39 49 51 74
3350.0 92 79 68 56 39 42 49 36 29 21
3390.0 20 33 31 12 13 34 17 32 55 44
3430.0 40 32 24 33 39 15 16 32 15 2
3470.0 3 1 12 11 22 29 25 32 26 4
3510.0 0 20 47 52 18 16 54 34 18 13
3550.0 26 38 23 29 37 47 51 42 56 62
3590.0 59 70 58 58 74 59 36 42 52 38
3630.0 33 38 37 44 43 23 42 58 51 41
3670.0 29 19 17 22 10 27 33 15 32 49
3710.0 39 43 57 44 30 38 39 44 58 72
3750.0 67 38 31 33 42 53 52 49 48 71
3790.0 93 109 115 124 132 124 125 150 187 215
3830.0 238 243 239 235 199
##END=
