##TITLE=Tribromoethylene
##JCAMP-DX=4.24
##DATA TYPE=INFRARED SPECTRUM
##ORIGIN=NIST Mass Spectrometry Data Center
##OWNER=NIST Standard Reference Data Program
Collection (C) 2009 copyright by the U.S. Secretary of Commerce
on behalf of the United States of America. All rights reserved.
##CAS REGISTRY NO=598-16-3
##MOLFORM=C 2 H Br 3
##$NIST SOURCE=MSDC-IR
##SPECTROMETER/DATA SYSTEM=HP-GC/MS/IRD
##STATE=gas
##XUNITS=1/CM
##YUNITS=ABSORBANCE
##XFACTOR=1.0
##YFACTOR=0.000002900
##DELTAX=4.0
##FIRSTX=550.0
##LASTX=3846.0
##FIRSTY=0.000348
##MAXX=3846
##MINX=550
##MAXY=0.029
##MINY=0
##NPOINTS=825
##XYDATA=(X++(Y..Y))
550.0 120 119 83 87 72 82 90 91 70 92
590.0 135 180 216 232 238 215 179 140 104 70
630.0 55 70 84 86 92 94 124 184 246 303
670.0 380 487 703 1161 1977 3326 5265 7320 8786 8985
710.0 7484 4987 2647 1366 986 805 657 555 523 543
750.0 681 1091 1806 2628 3586 4094 3222 2213 1552 961
790.0 692 709 920 1246 1684 2240 2856 3749 5234 7162
830.0 9011 10000 9804 8220 5375 2787 1359 703 434 322
870.0 270 223 172 128 104 97 72 60 67 86
910.0 112 139 177 243 326 397 429 412 350 278
950.0 195 124 80 50 54 52 41 37 48 56
990.0 73 86 98 129 150 162 149 116 87 78
1030.0 71 45 44 54 71 71 75 93 91 86
1070.0 91 98 86 59 37 26 16 28 37 11
1110.0 19 45 46 24 11 28 53 35 19 28
1150.0 27 30 46 72 81 107 118 113 125 124
1190.0 138 203 338 573 924 1361 1739 1755 1569 1268
1230.0 757 356 178 108 76 59 51 53 58 51
1270.0 45 43 36 42 49 53 55 52 53 51
1310.0 48 61 83 112 135 147 149 128 92 69
1350.0 55 44 43 48 50 52 62 63 61 69
1390.0 74 65 64 62 58 57 45 38 35 29
1430.0 28 29 21 17 22 23 15 12 8 6
1470.0 7 5 12 20 23 32 45 62 90 132
1510.0 199 295 441 630 834 1024 1064 976 871 736
1550.0 653 633 590 498 375 233 131 82 60 48
1590.0 36 31 31 26 20 18 17 20 28 36
1630.0 41 41 40 42 40 37 48 51 51 63
1670.0 70 72 71 67 63 56 54 50 43 49
1710.0 58 59 64 62 50 39 28 28 30 27
1750.0 20 23 27 25 22 22 28 26 28 31
1790.0 33 35 30 26 26 24 24 21 20 26
1830.0 26 25 24 23 19 17 20 25 31 33
1870.0 26 25 36 39 32 27 34 38 41 49
1910.0 48 48 52 52 41 40 37 23 16 24
1950.0 32 29 25 23 23 26 30 31 25 26
1990.0 24 30 32 28 36 38 29 30 33 36
2030.0 40 40 45 50 50 47 47 53 51 44
2070.0 34 31 33 34 28 26 35 30 23 25
2110.0 34 29 24 31 33 27 24 33 34 32
2150.0 32 25 22 27 31 34 33 29 30 28
2190.0 18 19 26 26 29 31 28 23 22 30
2230.0 31 27 23 28 25 17 26 33 30 27
2270.0 34 42 37 36 38 34 36 39 34 32
2310.0 42 44 37 31 31 37 37 34 36 38
2350.0 35 32 35 36 31 31 32 35 40 36
2390.0 27 25 25 29 36 34 29 27 27 35
2430.0 35 35 34 32 42 39 37 35 22 21
2470.0 24 25 34 39 32 39 41 30 30 30
2510.0 29 34 31 33 36 33 36 32 21 22
2550.0 20 25 31 33 30 27 33 32 25 29
2590.0 34 32 29 26 23 23 29 31 21 15
2630.0 24 28 20 17 26 27 25 23 20 23
2670.0 26 30 37 39 30 27 24 23 26 30
2710.0 34 42 41 34 31 31 39 42 43 53
2750.0 63 66 57 59 63 59 54 49 31 16
2790.0 27 29 30 40 42 36 30 26 23 26
2830.0 35 30 30 28 29 38 29 30 28 20
2870.0 29 31 26 33 29 18 15 21 30 18
2910.0 20 22 0 3 17 23 25 19 17 23
2950.0 33 39 37 29 40 57 39 30 30 21
2990.0 26 25 36 46 41 39 43 37 35 42
3030.0 48 57 61 74 96 125 163 210 281 384
3070.0 510 617 700 761 776 781 825 860 874 850
3110.0 775 650 496 325 192 121 84 59 50 51
3150.0 48 50 53 65 64 54 53 46 40 41
3190.0 42 48 72 64 47 46 50 47 30 33
3230.0 32 40 53 50 42 37 43 49 53 51
3270.0 45 34 40 57 53 46 49 36 32 34
3310.0 39 39 31 31 31 49 60 46 41 50
3350.0 54 50 35 35 62 61 46 51 50 32
3390.0 41 66 62 53 45 32 27 39 57 43
3430.0 36 53 63 50 52 69 67 47 40 53
3470.0 44 46 67 74 55 40 52 50 50 57
3510.0 57 54 52 44 55 72 62 59 32 18
3550.0 43 40 42 52 64 73 67 60 59 66
3590.0 79 79 68 80 68 47 52 56 56 45
3630.0 46 64 69 53 35 47 66 57 36 19
3670.0 26 49 53 42 26 26 41 49 59 64
3710.0 51 52 58 56 47 47 49 52 59 51
3750.0 44 43 47 48 60 77 59 55 66 55
3790.0 51 50 48 48 42 42 56 57 60 65
3830.0 54 51 39 44 72
##END=
