##TITLE=Glycerol
##JCAMP-DX=4.24
##DATA TYPE=INFRARED SPECTRUM
##ORIGIN=NIST Mass Spectrometry Data Center
##OWNER=NIST Standard Reference Data Program
Collection (C) 2009 copyright by the U.S. Secretary of Commerce
on behalf of the United States of America. All rights reserved.
##CAS REGISTRY NO=56-81-5
##MOLFORM=C 3 H 8 O 3
##$NIST SOURCE=MSDC-IR
##SPECTROMETER/DATA SYSTEM=HP-GC/MS/IRD
##STATE=gas
##XUNITS=1/CM
##YUNITS=ABSORBANCE
##XFACTOR=1.0
##YFACTOR=0.000002100
##DELTAX=4.0
##FIRSTX=550.0
##LASTX=3846.0
##FIRSTY=0.001142
##MAXX=3846
##MINX=550
##MAXY=0.021
##MINY=0
##NPOINTS=825
##XYDATA=(X++(Y..Y))
550.0 544 783 485 515 489 421 366 302 253 224
590.0 189 197 201 212 200 187 174 160 190 222
630.0 248 290 334 378 460 556 571 559 560 527
670.0 482 431 352 248 151 104 89 77 73 63
710.0 34 26 32 36 32 46 53 42 55 85
750.0 115 132 157 175 193 217 247 271 264 255
790.0 260 262 268 272 295 339 394 442 488 578
830.0 666 740 811 862 892 871 849 830 782 725
870.0 677 656 655 675 725 794 880 990 1097 1181
910.0 1230 1269 1301 1298 1271 1248 1240 1237 1257 1289
950.0 1356 1459 1546 1660 1783 1882 1993 2149 2323 2511
990.0 2737 2971 3249 3584 3955 4387 4928 5579 6296 7052
1030.0 7777 8428 9003 9502 9863 10000 9865 9505 8998 8392
1070.0 7706 6974 6285 5698 5238 4930 4716 4510 4294 4046
1110.0 3748 3398 3050 2712 2379 2094 1840 1640 1514 1458
1150.0 1431 1430 1460 1510 1558 1625 1692 1765 1829 1872
1190.0 1921 1949 1957 1951 1948 1945 1930 1922 1906 1893
1230.0 1905 1925 1941 1969 1996 2016 2017 1998 1969 1930
1270.0 1876 1819 1769 1716 1674 1654 1654 1667 1686 1719
1310.0 1761 1812 1870 1926 1980 2029 2070 2106 2133 2154
1350.0 2169 2191 2210 2231 2251 2273 2292 2307 2323 2324
1390.0 2305 2262 2195 2089 1960 1812 1646 1482 1311 1147
1430.0 1002 887 803 750 750 787 835 883 899 897
1470.0 883 854 768 636 519 417 334 270 228 199
1510.0 172 147 140 136 120 106 100 94 91 80
1550.0 71 64 66 61 52 46 39 44 36 24
1590.0 18 17 21 11 0 1 13 19 12 9
1630.0 14 21 15 13 20 26 20 8 12 11
1670.0 9 9 10 11 12 13 17 22 25 26
1710.0 27 33 35 35 38 41 41 39 36 33
1750.0 35 30 24 29 31 28 24 23 24 24
1790.0 27 22 23 23 22 25 27 33 36 35
1830.0 33 27 27 40 44 31 32 42 41 37
1870.0 34 32 33 34 33 27 25 37 45 38
1910.0 32 36 39 44 42 40 45 44 45 41
1950.0 41 45 46 47 45 49 52 48 45 45
1990.0 53 50 43 45 50 54 53 55 61 61
2030.0 58 62 74 78 81 85 84 81 81 85
2070.0 85 81 81 77 80 86 80 74 73 77
2110.0 78 75 71 66 63 56 58 52 40 37
2150.0 39 40 39 38 37 32 30 29 31 34
2190.0 32 30 26 29 33 34 35 27 26 29
2230.0 33 37 35 33 34 36 32 38 37 31
2270.0 34 34 29 30 40 40 39 42 41 40
2310.0 40 42 49 55 57 57 63 62 61 63
2350.0 62 67 75 81 84 73 66 65 62 62
2390.0 61 59 64 66 61 64 70 66 66 72
2430.0 70 61 61 69 70 73 72 65 66 67
2470.0 60 50 55 61 53 49 54 53 55 56
2510.0 55 50 46 47 57 65 68 64 60 62
2550.0 63 64 68 70 71 67 68 73 71 72
2590.0 72 82 87 86 81 73 84 92 88 94
2630.0 96 104 108 105 113 113 116 128 135 145
2670.0 149 148 160 167 167 171 181 190 203 214
2710.0 218 221 225 236 254 269 282 294 301 313
2750.0 324 332 347 365 379 390 410 430 442 460
2790.0 483 497 512 532 553 575 597 631 670 724
2830.0 788 852 931 1048 1191 1342 1542 1786 2068 2392
2870.0 2752 3131 3477 3777 4016 4169 4200 4154 4065 3965
2910.0 3902 3915 4026 4228 4488 4771 5041 5262 5381 5362
2950.0 5199 4900 4471 3956 3415 2870 2346 1868 1466 1139
2990.0 872 671 523 414 344 308 262 216 198 184
3030.0 166 159 147 128 127 127 110 91 85 85
3070.0 87 78 68 71 66 55 57 62 61 53
3110.0 45 44 44 42 38 37 41 38 35 33
3150.0 28 35 29 29 41 42 41 41 39 37
3190.0 37 32 36 54 44 37 53 61 68 60
3230.0 63 75 73 74 61 58 70 72 78 87
3270.0 93 92 89 89 85 90 95 88 83 81
3310.0 99 111 105 106 116 124 131 123 111 116
3350.0 119 119 118 118 128 134 119 124 135 133
3390.0 153 150 147 152 144 161 156 133 160 177
3430.0 178 182 185 180 190 205 200 195 204 225
3470.0 232 249 260 263 264 259 274 298 307 327
3510.0 339 344 358 355 355 363 371 379 388 416
3550.0 457 486 535 607 697 816 952 1115 1302 1487
3590.0 1674 1869 2060 2269 2473 2668 2842 2948 3018 3068
3630.0 3064 3020 2925 2797 2697 2610 2524 2464 2407 2373
3670.0 2335 2252 2153 1987 1794 1595 1376 1163 956 788
3710.0 677 580 508 468 419 382 365 360 335 306
3750.0 296 285 266 249 234 221 208 205 211 200
3790.0 192 178 170 185 184 170 166 162 157 159
3830.0 152 136 129 134 127
##END=
