##TITLE=1-Nitropropane
##JCAMP-DX=4.24
##DATA TYPE=INFRARED SPECTRUM
##ORIGIN=NIST Mass Spectrometry Data Center
##OWNER=NIST Standard Reference Data Program
Collection (C) 2009 copyright by the U.S. Secretary of Commerce
on behalf of the United States of America. All rights reserved.
##CAS REGISTRY NO=108-03-2
##MOLFORM=C 3 H 7 N O 2
##$NIST SOURCE=MSDC-IR
##SPECTROMETER/DATA SYSTEM=HP-GC/MS/IRD
##STATE=gas
##XUNITS=1/CM
##YUNITS=ABSORBANCE
##XFACTOR=1.0
##YFACTOR=0.000000700
##DELTAX=4.0
##FIRSTX=550.0
##LASTX=3846.0
##FIRSTY=0.000131
##MAXX=3846
##MINX=550
##MAXY=0.007
##MINY=0
##NPOINTS=825
##XYDATA=(X++(Y..Y))
550.0 187 247 342 280 371 522 478 503 482 487
590.0 481 510 624 547 510 494 432 527 609 532
630.0 438 495 488 428 364 355 330 279 301 304
670.0 232 181 151 167 199 186 214 170 167 273
710.0 326 325 427 486 405 472 514 440 407 379
750.0 376 372 348 284 230 226 270 449 588 595
790.0 673 746 781 745 650 591 503 442 380 299
830.0 258 193 189 194 157 196 266 244 229 249
870.0 286 346 360 354 355 392 383 351 382 393
910.0 343 250 187 180 203 198 178 154 119 54
950.0 45 95 103 73 2 32 104 81 107 129
990.0 67 31 26 60 56 115 168 97 67 117
1030.0 182 164 109 126 145 139 217 209 189 249
1070.0 208 76 55 134 162 214 247 205 246 297
1110.0 285 309 369 364 378 373 390 342 307 368
1150.0 344 327 316 313 333 314 284 266 322 328
1190.0 278 356 440 437 488 562 584 586 589 616
1230.0 642 620 581 538 526 513 474 432 398 399
1270.0 393 408 410 407 392 403 432 426 441 473
1310.0 511 556 596 670 762 849 945 1069 1198 1344
1350.0 1516 1677 1892 2183 2429 2661 2856 2956 2957 2869
1390.0 2629 2277 1856 1440 1122 944 852 854 905 992
1430.0 1070 1130 1200 1277 1328 1389 1388 1286 1171 1063
1470.0 984 912 843 805 789 751 714 711 754 830
1510.0 939 1112 1353 1702 2140 2670 3372 4234 5260 6347
1550.0 7460 8466 9229 9696 9881 9940 10000 9854 9271 8312
1590.0 7017 5591 4292 3191 2345 1697 1231 917 678 506
1630.0 415 364 342 312 278 252 220 178 157 159
1670.0 151 148 158 136 99 92 87 106 118 114
1710.0 100 91 92 89 105 114 97 101 120 110
1750.0 114 120 120 99 77 73 82 80 74 72
1790.0 85 80 81 104 105 91 78 85 93 107
1830.0 105 93 90 87 83 71 71 102 108 90
1870.0 95 86 81 79 81 87 72 52 47 61
1910.0 79 88 100 87 62 47 49 78 71 65
1950.0 80 82 74 70 75 80 91 77 57 87
1990.0 72 37 56 60 68 75 76 57 40 44
2030.0 35 45 74 80 64 64 73 66 64 82
2070.0 89 70 57 61 66 53 44 68 60 51
2110.0 55 51 68 76 76 68 58 61 44 51
2150.0 73 70 82 90 72 55 68 89 96 73
2190.0 58 59 70 84 93 117 133 103 98 127
2230.0 128 107 107 131 131 137 152 168 206 192
2270.0 162 202 230 223 220 208 204 173 144 138
2310.0 91 74 88 57 54 65 72 102 110 111
2350.0 87 60 90 94 51 46 77 97 94 86
2390.0 76 94 92 56 41 39 58 72 62 78
2430.0 78 70 81 61 77 80 63 88 106 106
2470.0 99 99 94 71 61 77 98 61 22 20
2510.0 42 46 46 47 46 69 43 17 39 66
2550.0 60 37 39 44 44 52 54 69 57 41
2590.0 50 40 55 60 53 75 77 65 37 33
2630.0 42 33 1 26 52 53 67 37 37 39
2670.0 35 29 23 38 64 97 84 38 49 62
2710.0 69 91 122 110 117 140 118 110 117 101
2750.0 79 114 154 169 155 119 106 115 117 103
2790.0 119 134 173 193 131 124 166 137 125 129
2830.0 135 174 200 212 262 328 326 344 419 431
2870.0 505 621 684 756 802 859 910 925 953 985
2910.0 1013 1008 1073 1169 1205 1286 1391 1494 1590 1666
2950.0 1744 1851 1891 1904 2003 2140 2220 2280 2300 2245
2990.0 2158 1997 1804 1553 1313 1149 983 804 648 527
3030.0 468 415 396 385 319 281 254 212 172 157
3070.0 135 129 130 96 115 176 171 155 124 89
3110.0 90 151 148 120 131 134 144 99 91 132
3150.0 121 104 110 80 51 38 48 110 100 38
3190.0 75 125 71 41 48 47 88 66 85 112
3230.0 93 106 118 99 101 72 13 40 69 57
3270.0 44 84 99 53 14 36 93 98 125 127
3310.0 124 107 79 99 101 145 132 47 62 121
3350.0 91 77 112 101 109 124 54 48 120 111
3390.0 39 25 62 135 143 138 130 63 23 24
3430.0 0 8 49 24 16 27 73 76 81 118
3470.0 96 84 114 153 179 168 134 127 85 51
3510.0 89 119 135 111 132 199 137 79 28 21
3550.0 95 97 96 122 162 210 192 179 172 129
3590.0 89 75 45 5 1 18 81 112 89 48
3630.0 43 66 37 71 134 148 122 138 196 213
3670.0 234 217 143 63 96 157 157 143 163 195
3710.0 141 165 189 116 72 47 122 153 74 75
3750.0 82 81 92 140 184 156 109 121 97 53
3790.0 126 193 169 135 117 70 94 174 185 182
3830.0 124 84 120 194 239
##END=
