##TITLE=1,4-Cyclohexadiene
##JCAMP-DX=4.24
##DATA TYPE=INFRARED SPECTRUM
##ORIGIN=NIST Mass Spectrometry Data Center
##OWNER=NIST Standard Reference Data Program
Collection (C) 2009 copyright by the U.S. Secretary of Commerce
on behalf of the United States of America. All rights reserved.
##CAS REGISTRY NO=628-41-1
##MOLFORM=C 6 H 8
##$NIST SOURCE=MSDC-IR
##SPECTROMETER/DATA SYSTEM=HP-GC/MS/IRD
##STATE=gas
##XUNITS=1/CM
##YUNITS=ABSORBANCE
##XFACTOR=1.0
##YFACTOR=0.000001800
##DELTAX=4.0
##FIRSTX=550.0
##LASTX=3846.0
##FIRSTY=0.000772
##MAXX=3846
##MINX=550
##MAXY=0.018
##MINY=0
##NPOINTS=825
##XYDATA=(X++(Y..Y))
550.0 429 269 195 318 464 620 881 1277 1682 2108
590.0 2641 3070 3459 4198 5241 5959 5368 4098 3721 3942
630.0 4045 4074 4184 4423 4749 4980 4677 3937 3321 2899
670.0 2766 2502 1978 1554 1223 935 661 405 249 182
710.0 136 117 93 62 38 36 57 60 33 36
750.0 50 35 37 60 47 69 129 142 164 147
790.0 148 214 233 226 208 186 139 102 98 74
830.0 56 78 74 79 118 158 244 399 620 897
870.0 1148 1338 1423 1449 1476 1441 1389 1388 1279 966
910.0 689 580 600 689 835 1084 1417 1856 2511 3330
950.0 4029 4029 3261 2777 3372 3674 2601 1632 1377 1250
990.0 1073 860 643 469 362 292 256 248 228 205
1030.0 203 222 234 205 184 171 146 134 115 92
1070.0 92 95 74 73 68 77 82 70 68 43
1110.0 17 13 32 40 42 40 44 72 89 102
1150.0 114 122 122 138 149 140 136 132 96 52
1190.0 41 21 13 14 0 14 12 0 16 16
1230.0 8 5 24 46 27 21 14 15 36 50
1270.0 58 49 51 63 73 98 120 136 160 173
1310.0 177 194 213 254 330 390 418 431 435 452
1350.0 468 460 454 448 400 324 261 245 236 228
1390.0 244 248 258 276 308 397 554 767 929 966
1430.0 934 951 965 919 898 824 676 478 305 201
1470.0 144 115 110 97 90 97 87 78 84 99
1510.0 101 97 95 99 99 114 134 156 181 170
1550.0 134 143 176 175 198 217 245 276 294 317
1590.0 325 342 380 446 527 632 753 889 1021 1135
1630.0 1217 1264 1297 1309 1312 1288 1200 1059 881 713
1670.0 597 518 446 391 322 243 185 133 91 76
1710.0 69 67 64 57 62 69 69 58 50 58
1750.0 68 62 40 22 23 19 23 33 31 18
1790.0 20 41 52 52 55 55 48 54 57 62
1830.0 68 66 59 64 73 64 72 94 116 133
1870.0 150 171 184 196 207 211 227 231 227 228
1910.0 216 206 198 173 163 172 168 148 126 111
1950.0 99 87 76 70 63 49 44 40 23 20
1990.0 28 30 31 41 50 40 38 49 39 34
2030.0 42 34 31 36 38 41 32 17 19 16
2070.0 10 13 10 8 15 21 30 18 0 6
2110.0 23 33 26 21 33 43 44 42 42 48
2150.0 61 62 63 59 48 53 47 39 47 49
2190.0 46 44 39 38 48 61 62 43 39 42
2230.0 35 35 42 47 29 22 30 29 21 20
2270.0 29 34 38 31 28 27 32 51 56 42
2310.0 49 64 60 63 74 79 67 71 78 65
2350.0 66 85 88 86 94 104 98 85 69 57
2390.0 54 38 20 11 3 13 16 3 6 12
2430.0 9 22 29 16 8 25 46 51 48 36
2470.0 33 34 33 43 42 32 31 35 43 50
2510.0 40 35 41 49 55 57 53 34 31 37
2550.0 28 22 15 9 14 36 44 34 32 35
2590.0 46 55 55 59 62 66 69 76 82 88
2630.0 105 111 104 120 144 170 195 223 260 279
2670.0 299 313 324 319 311 300 267 241 224 217
2710.0 226 231 234 243 262 309 347 337 304 300
2750.0 319 355 388 416 453 472 486 534 604 706
2790.0 820 844 832 909 1116 1489 2096 3000 4135 5116
2830.0 5518 5631 5897 6021 6181 6499 6542 6109 5523 5212
2870.0 6981 9658 9435 8721 8582 8040 7861 7609 6880 6212
2910.0 5407 4189 2876 1826 1176 840 689 627 644 703
2950.0 777 863 962 1076 1214 1385 1598 1795 1948 2048
2990.0 2073 2160 2372 2761 3418 4394 5697 7182 8555 9489
3030.0 9905 10000 9971 9891 9622 8921 7522 5596 3764 2431
3070.0 1638 1221 998 874 798 738 673 588 529 489
3110.0 415 347 283 216 180 157 121 101 91 88
3150.0 96 79 57 68 75 62 68 74 52 27
3190.0 25 46 55 42 33 37 38 20 40 57
3230.0 39 56 63 58 73 99 139 141 134 163
3270.0 176 176 179 182 170 157 157 147 102 58
3310.0 59 82 70 57 60 55 50 29 21 37
3350.0 35 33 42 28 17 25 21 23 40 38
3390.0 31 19 11 14 37 52 25 19 12 1
3430.0 9 27 39 43 32 30 15 15 39 21
3470.0 11 45 39 34 47 34 31 33 41 49
3510.0 37 39 33 25 42 31 36 40 22 23
3550.0 46 42 14 32 47 43 48 65 69 69
3590.0 82 85 84 70 74 72 34 11 15 45
3630.0 73 54 36 41 59 73 47 51 60 55
3670.0 60 52 41 42 51 53 34 55 72 67
3710.0 66 48 35 26 28 61 84 58 61 78
3750.0 61 51 29 7 16 27 28 25 11 9
3790.0 15 23 51 50 35 26 33 38 36 42
3830.0 39 38 36 52 85
##END=
