##TITLE=Diethyl sulfide
##JCAMP-DX=4.24
##DATA TYPE=INFRARED SPECTRUM
##ORIGIN=NIST Mass Spectrometry Data Center
##OWNER=NIST Standard Reference Data Program
Collection (C) 2009 copyright by the U.S. Secretary of Commerce
on behalf of the United States of America. All rights reserved.
##CAS REGISTRY NO=352-93-2
##MOLFORM=C 4 H 10 S
##$NIST SOURCE=MSDC-IR
##SPECTROMETER/DATA SYSTEM=HP-GC/MS/IRD
##STATE=gas
##XUNITS=1/CM
##YUNITS=ABSORBANCE
##XFACTOR=1.0
##YFACTOR=0.000003000
##DELTAX=4.0
##FIRSTX=550.0
##LASTX=3846.0
##FIRSTY=0.000120
##MAXX=3846
##MINX=550
##MAXY=0.03
##MINY=0
##NPOINTS=825
##XYDATA=(X++(Y..Y))
550.0 40 3 25 4 5 12 26 61 78 77
590.0 60 52 64 53 50 57 83 100 122 148
630.0 141 139 171 173 183 197 165 147 166 186
670.0 199 219 248 291 302 277 267 270 238 192
710.0 169 151 144 173 202 204 229 277 312 332
750.0 349 359 392 430 438 462 471 468 456 435
790.0 447 425 352 290 237 206 205 177 141 136
830.0 137 119 105 100 92 96 90 73 86 92
870.0 89 78 78 99 97 78 83 98 95 93
910.0 91 96 132 162 166 175 190 219 284 372
950.0 470 587 724 863 962 1029 1050 1046 998 876
990.0 721 562 443 357 306 275 266 287 293 293
1030.0 310 309 292 305 335 340 341 368 375 353
1070.0 349 357 357 339 281 222 179 147 133 115
1110.0 95 109 126 117 110 105 110 97 100 122
1150.0 127 121 107 97 114 131 143 163 171 171
1190.0 193 219 226 248 280 321 395 496 668 939
1230.0 1283 1750 2350 3025 3617 4024 4264 4340 4219 3880
1270.0 3336 2644 1996 1534 1237 1024 863 747 643 563
1310.0 502 451 410 386 372 360 348 332 334 355
1350.0 384 420 488 588 691 803 911 1020 1079 1103
1390.0 1117 1061 971 905 874 883 915 974 1070 1190
1430.0 1334 1484 1624 1748 1834 1864 1874 1829 1691 1519
1470.0 1361 1208 1064 918 787 671 572 487 424 386
1510.0 350 312 290 272 248 234 219 203 187 181
1550.0 182 176 166 166 170 160 156 161 155 143
1590.0 136 139 143 134 129 137 139 139 145 149
1630.0 152 158 154 148 143 130 125 127 128 128
1670.0 121 118 125 123 126 120 108 106 105 100
1710.0 85 83 79 82 97 89 74 71 74 67
1750.0 67 71 64 63 66 57 51 52 55 52
1790.0 48 43 44 40 40 46 41 40 45 39
1830.0 32 34 38 41 39 39 41 40 41 40
1870.0 40 43 42 41 39 33 37 39 43 45
1910.0 39 45 43 39 41 41 38 35 40 45
1950.0 44 45 54 55 44 42 48 45 41 43
1990.0 45 42 49 53 57 56 54 59 54 50
2030.0 54 46 41 45 46 43 37 40 42 42
2070.0 43 42 48 48 33 23 29 31 36 42
2110.0 36 30 33 44 45 44 45 58 51 45
2150.0 49 43 49 52 51 52 51 51 44 37
2190.0 38 47 51 46 42 45 52 64 66 68
2230.0 67 74 76 70 64 43 34 41 46 44
2270.0 43 40 30 27 18 15 27 38 32 34
2310.0 38 36 29 25 19 17 31 45 44 46
2350.0 51 51 51 43 42 47 38 39 46 49
2390.0 49 52 62 67 72 70 66 74 76 78
2430.0 77 65 61 56 44 39 44 46 49 55
2470.0 52 49 38 37 41 33 23 10 13 26
2510.0 27 31 25 19 9 8 17 8 12 16
2550.0 15 8 19 21 16 10 0 11 12 4
2590.0 12 22 29 26 21 21 24 43 61 44
2630.0 19 27 40 38 44 45 56 70 64 72
2670.0 84 99 117 132 142 157 172 182 187 178
2710.0 178 171 182 199 206 211 217 229 227 226
2750.0 228 209 190 183 182 180 196 214 236 264
2790.0 294 319 357 412 461 521 602 677 768 878
2830.0 1000 1139 1282 1441 1601 1761 1944 2171 2461 2847
2870.0 3304 3757 4094 4300 4460 4584 4667 4696 4731 4864
2910.0 5194 5759 6596 7669 8716 9464 9831 9984 10000 9999
2950.0 9941 9659 9368 9298 9549 9806 9810 9701 9193 8200
2990.0 7126 6055 5008 4078 3294 2661 2154 1757 1478 1263
3030.0 1100 963 852 783 713 639 575 520 479 455
3070.0 421 389 390 373 337 333 339 323 290 284
3110.0 294 293 301 295 286 277 275 270 245 249
3150.0 248 234 233 236 235 248 239 205 178 175
3190.0 187 175 174 179 178 175 149 139 122 114
3230.0 123 124 101 91 103 91 88 98 102 100
3270.0 78 77 82 71 63 77 91 93 92 90
3310.0 83 81 98 82 59 79 79 71 69 58
3350.0 59 51 58 73 66 58 56 49 39 36
3390.0 32 16 17 30 27 14 27 63 47 28
3430.0 46 44 41 42 42 51 50 64 62 32
3470.0 36 45 21 26 48 40 29 48 59 34
3510.0 27 32 25 12 0 10 15 35 42 41
3550.0 63 39 36 57 68 55 55 66 61 67
3590.0 67 73 94 84 63 61 68 70 62 62
3630.0 71 80 62 48 47 34 57 70 55 45
3670.0 50 66 82 84 69 67 69 68 80 75
3710.0 71 93 104 80 60 70 78 75 77 81
3750.0 73 78 65 63 66 47 47 44 38 51
3790.0 59 58 63 36 29 64 58 36 54 71
3830.0 63 53 38 46 75
##END=
