##TITLE=Isopropylacetylene
##JCAMP-DX=4.24
##DATA TYPE=INFRARED SPECTRUM
##ORIGIN=NIST Mass Spectrometry Data Center
##OWNER=NIST Standard Reference Data Program
Collection (C) 2009 copyright by the U.S. Secretary of Commerce
on behalf of the United States of America. All rights reserved.
##CAS REGISTRY NO=598-23-2
##MOLFORM=C 5 H 8
##$NIST SOURCE=MSDC-IR
##SPECTROMETER/DATA SYSTEM=HP-GC/MS/IRD
##STATE=gas
##XUNITS=1/CM
##YUNITS=ABSORBANCE
##XFACTOR=1.0
##YFACTOR=0.000021300
##DELTAX=4.0
##FIRSTX=550.0
##LASTX=3846.0
##FIRSTY=0.004068
##MAXX=3846
##MINX=550
##MAXY=0.213
##MINY=0
##NPOINTS=825
##XYDATA=(X++(Y..Y))
550.0 191 280 177 166 153 142 145 163 177 204
590.0 248 316 428 629 943 1419 2145 3226 4579 6553
630.0 8814 10000 9330 7284 5260 3615 2385 1519 944 575
670.0 351 221 153 112 88 77 68 63 60 58
710.0 54 47 46 46 35 26 26 27 28 23
750.0 18 18 18 16 17 17 14 15 18 19
790.0 16 14 16 19 22 25 26 25 24 25
830.0 26 23 17 17 19 17 14 14 17 17
870.0 16 15 16 17 21 27 33 39 47 60
910.0 72 76 76 77 75 77 79 70 54 43
950.0 36 26 19 15 10 8 6 6 7 7
990.0 4 1 3 8 11 10 14 16 15 26
1030.0 34 39 50 61 68 72 77 86 98 111
1070.0 127 148 189 247 320 402 492 582 623 612
1110.0 586 529 441 350 270 213 182 174 185 218
1150.0 257 287 295 288 290 285 252 229 213 179
1190.0 142 119 105 104 108 120 146 196 305 526
1230.0 886 1344 1709 1820 1821 1997 2054 1782 1743 1701
1270.0 1357 938 603 416 345 356 432 583 811 1074
1310.0 1223 1186 1125 1023 857 780 705 580 464 389
1350.0 363 375 404 436 424 406 493 580 575 609
1390.0 569 415 345 317 284 265 259 273 304 349
1430.0 409 478 549 612 657 693 734 770 793 819
1470.0 808 775 714 615 538 475 412 347 282 223
1510.0 173 136 106 84 69 59 51 47 42 35
1550.0 31 29 27 25 24 24 23 26 25 22
1590.0 22 23 23 23 25 26 26 27 28 29
1630.0 32 33 36 37 37 39 41 39 38 36
1670.0 35 33 32 30 27 26 23 22 21 18
1710.0 16 16 17 14 12 14 14 12 11 10
1750.0 7 8 9 7 6 6 7 6 7 5
1790.0 7 9 9 10 11 11 12 11 11 13
1830.0 14 13 12 13 12 11 12 15 18 19
1870.0 20 20 19 20 21 22 22 21 19 19
1910.0 21 19 15 12 10 11 10 8 6 4
1950.0 2 3 3 2 3 3 2 3 4 3
1990.0 4 3 2 2 3 2 3 5 4 5
2030.0 6 6 6 7 9 12 15 19 26 32
2070.0 41 52 66 85 114 149 187 229 270 303
2110.0 326 336 338 329 308 274 227 171 112 61
2150.0 30 19 12 7 4 5 3 0 0 0
2190.0 0 1 1 3 4 6 7 6 7 7
2230.0 9 9 10 11 10 9 7 6 9 11
2270.0 12 13 14 16 19 22 23 24 23 20
2310.0 17 16 14 10 7 5 4 4 3 3
2350.0 3 5 7 8 7 6 7 6 7 9
2390.0 9 8 7 8 9 9 10 11 11 10
2430.0 13 14 13 12 14 15 14 16 19 17
2470.0 19 22 24 25 25 26 24 20 19 17
2510.0 14 11 10 12 14 16 20 25 28 33
2550.0 37 42 49 52 55 57 58 56 52 52
2590.0 48 46 44 42 42 43 42 43 42 40
2630.0 38 37 38 36 34 35 35 33 36 38
2670.0 36 36 40 46 56 68 75 75 68 61
2710.0 59 62 66 69 76 81 85 91 96 101
2750.0 101 99 100 101 104 106 110 117 125 126
2790.0 127 130 134 137 144 150 155 163 169 176
2830.0 183 197 220 250 292 356 455 595 771 976
2870.0 1181 1357 1473 1584 1714 1819 1912 2118 2346 2261
2910.0 2130 2162 2245 2363 2480 2585 2674 2753 2835 2961
2950.0 3205 3567 4040 4561 5104 5498 6187 6795 6028 5728
2990.0 5528 4750 4013 3104 2277 1591 1096 753 526 374
3030.0 284 227 191 168 150 139 130 129 125 118
3070.0 117 119 118 119 120 119 121 124 128 131
3110.0 130 130 129 131 133 135 133 132 134 135
3150.0 137 141 146 152 158 161 164 166 165 158
3190.0 148 141 130 122 111 101 93 83 79 79
3230.0 78 80 85 92 104 119 132 149 177 225
3270.0 280 337 401 499 690 887 1068 1248 1471 2007
3310.0 2478 2743 2952 2837 3115 3006 2401 2503 2438 1881
3350.0 1234 744 470 328 248 190 150 116 84 62
3390.0 44 35 30 25 26 27 26 26 26 25
3430.0 21 19 17 13 16 19 20 19 18 21
3470.0 22 23 22 24 32 39 42 46 49 50
3510.0 45 37 34 32 28 26 23 18 14 16
3550.0 13 8 11 14 10 7 6 6 10 7
3590.0 3 4 8 8 5 5 6 8 7 3
3630.0 1 7 10 8 8 5 6 6 6 10
3670.0 13 10 7 9 11 8 6 10 13 11
3710.0 10 10 9 10 10 11 12 11 12 10
3750.0 12 11 9 10 13 15 15 17 13 9
3790.0 11 15 21 25 23 23 25 26 27 30
3830.0 31 32 29 28 32
##END=
