##TITLE=Cyclobutylamine
##JCAMP-DX=4.24
##DATA TYPE=INFRARED SPECTRUM
##ORIGIN=EPA-IR VAPOR PHASE LIBRARY
##OWNER=SRD/NIST
Collection (C) 2009 copyright by the U.S. Secretary of Commerce
on behalf of the United States of America. All rights reserved.
##CAS REGISTRY NO=2516-34-9
##MOLFORM=C 4 H 9 N
##$NIST SOURCE=MSDC-IR
##STATE=gas
##XUNITS=1/CM
##YUNITS=ABSORBANCE
##XFACTOR=1.
##YFACTOR=0.001
##DELTAX=1.92898
##FIRSTX=549.8
##LASTX=4000.7
##FIRSTY=12.7
##MAXX=4000.7
##MINX=549.759
##MAXY=0.36395
##MINY=0.0005272
##NPOINTS=1790
##XYDATA=(X++(Y..Y))
549.759 12.7 12.79 12.66 12.88 13.44 12.89 12.16 12.18 12.56 12.83
569.049 13.25 14.47 14.69 14.85 14.87 14.46 15.1 15.68 15.42 15.2
588.339 16.02 16.73 16.78 17.39 18.23 18.21 18.41 19.16 20.08 20.28
607.628 19.94 20.12 20.45 21.13 22.03 22.3 22.13 22.43 22.56 22.45
626.918 22.72 23.04 22.86 22.55 22.52 23.3 24.05 23.92 23.89 23.92
646.208 24.41 25.07 25.98 26.75 27.1 27.52 28.02 28.61 29 29.99
665.498 31.21 32.44 33.86 34.84 35.48 36.93 38.64 40.18 41.84 43.32
684.787 45.56 48 49.8 51.75 53.85 56.25 59.03 61.7 64.23 66.91
704.077 70.06 73.29 76.22 79.41 82.82 86 89.15 91.55 93.75 95.52
723.367 96.31 97.13 98.16 100.16 101.7 101.43 101.16 101.77 102.65 102.85
742.657 102.07 100.67 99.21 96.51 93.55 91.05 88.06 85.44 82.88 80.79
761.947 79.26 77.97 77.23 76.26 74.75 72.71 70.7 68.97 67.19 64.64
781.236 62.23 60.78 59.36 57.3 55.54 54.39 53.65 53.78 51.41 48.15
800.526 46.46 44.35 41.95 40.31 38.57 36.96 35.84 34.63 33.2 31.89
819.816 30.56 29.32 28.57 27.54 26.43 25.22 24.14 23.49 22.9 21.91
839.106 20.99 20.38 19.81 19.14 18.59 18.23 18 17.89 17.46 16.63
858.395 16.41 16.33 15.87 15.7 15.68 15.6 15.58 15.6 15.33 15.06
877.685 15.3 15.57 15.16 15.56 16.21 16.21 16.87 17.59 17.86 18.48
896.975 19.34 19.96 20.03 20.22 21.12 22.13 22.35 22.5 23.14 23.42
916.265 23.83 23.82 23.75 23.92 24.1 24.19 24.42 24.53 24.31 24.32
935.555 23.75 23.07 22.37 21.33 20.44 19.27 18.01 17.23 16.34 15.28
954.844 14.78 14.45 13.85 13.94 13.57 12.88 12.42 11.96 11.7 11.25
974.134 11.09 11.17 11.15 11.01 11.6 11.84 11.5 11.23 11.1 11.37
993.424 11.9 11.67 11.26 11.65 12.2 12.98 13.66 13.78 13.63 13.23
1012.714 12.98 13.58 13.99 13.64 13.53 13.66 13.76 14.17 14.35 14.84
1032.003 15.57 15.54 14.95 15.25 16.24 16.81 16.71 16.24 16.59 17.63
1051.293 18.08 17.49 17.61 18.47 18.84 18.84 18.68 18.67 19.32 20.15
1070.583 20.16 19.14 18.92 20 20.01 20.62 20.94 21.8 22.84 22.99
1089.873 24.66 26.31 26.97 27.4 29.4 30.62 32.55 35.65 37.63 40.95
1109.163 43.52 45.57 47.48 47.95 48.85 49.41 49.92 49.03 48.38 49.67
1128.452 50.6 49.81 46.49 44.08 43.16 42.93 43.01 41.45 38.04 34.89
1147.742 32.36 29.49 27.91 25.89 22.92 20.59 19.12 18.78 18.39 17.03
1167.032 16 15.18 14.69 15.33 15.21 15.21 15.56 15.61 15.05 14.04
1186.322 14.82 15.16 14.05 13.65 12.75 12.38 13.2 13.59 12.97 12.74
1205.611 13.64 13.47 12.71 11.78 11.93 13.7 15.77 16.8 17.18 17.71
1224.901 18.6 19.12 19.79 20.63 20.64 20.55 21.34 22.22 22.97 23.74
1244.191 23.98 25.38 26.21 25.98 26.09 25.88 25.58 25.56 25.2 24.53
1263.481 23.82 22.64 21.5 21.17 20.95 20.3 19.19 18.09 17.41 16.91
1282.771 16.01 15.11 14.2 13.13 12.64 12.29 11.49 10.66 10.54 10.36
1302.060 10.03 9.82 9.72 9.78 9.82 9.91 10.24 10.4 10.8 11.36
1321.350 11.83 12.54 13.39 14.22 15.25 16.3 17.14 18.17 19.27 20.52
1340.640 22.02 23.25 24.01 24.81 25.93 27.28 28.65 29.98 31.41 32.98
1359.930 34.47 35.8 36.99 38.39 39.71 40.47 40.83 40.94 40.57 39.68
1379.219 38.59 37.67 37.31 37.4 37.08 34.54 31.66 30.44 29.89 29.43
1398.509 28.44 27.03 25.35 23.5 21.67 19.82 18.21 16.97 16.11 15.57
1417.799 15.35 15.18 15.2 15.35 15.47 15.66 15.97 16.23 16.28 16.46
1437.089 16.75 17.28 17.9 18.76 20.11 21.7 23.02 22.89 21.33 20.09
1456.378 19.78 19.59 19.4 19.32 19.19 19.08 18.89 18.33 17.17 16.21
1475.668 15.75 15.3 14.78 14.18 13.51 12.57 11.68 11.1 10.25 9.44
1494.958 8.85 8.25 7.93 7.59 7.38 7.27 6.95 6.68 6.58 6.62
1514.248 6.7 6.59 6.47 6.61 6.83 6.8 6.61 6.4 6.46 6.7
1533.538 6.76 6.83 7.03 7.16 7.25 7.34 7.45 7.74 8.01 8.3
1552.827 8.42 8.67 9.13 9.4 9.94 10.36 10.69 11.18 11.73 12.44
1572.117 12.97 13.74 14.79 15.85 17.01 18.02 19.13 20.52 22.07 23.67
1591.407 25.36 27.16 29.03 30.65 32.05 33.42 34.9 36.22 37.13 38.1
1610.697 38.74 39.26 39.57 39.47 39.26 38.6 37.66 36.69 35.41 33.86
1629.986 32.4 31.01 29.38 27.55 25.9 24.07 21.91 20.01 18.31 16.76
1649.276 15.39 14.06 12.88 11.79 10.77 9.83 8.99 8.3 7.81 7.41
1668.566 6.82 6.43 6.14 5.7 5.47 5.17 4.8 4.91 4.75 4.49
1687.856 4.44 4.4 4.29 4.1 4.15 4.12 4.06 3.94 3.82 3.76
1707.146 3.69 3.7 3.56 3.62 3.85 3.76 3.61 3.66 3.76 3.81
1726.435 3.79 3.81 3.86 3.73 3.66 3.79 3.84 3.69 3.56 3.6
1745.725 3.42 3.35 3.39 3.49 3.56 3.37 3.37 3.37 3.29 3.15
1765.015 3.06 3.15 3.17 3.14 2.98 2.88 2.95 2.97 2.88 2.83
1784.305 2.88 2.87 2.92 2.99 2.89 2.9 3.03 3.1 3.16 3.16
1803.594 3.07 3.11 3.1 3.13 3.41 3.47 3.36 3.28 3.27 3.4
1822.884 3.48 3.6 3.69 3.67 3.63 3.72 3.86 4.03 4.02 3.99
1842.174 4.15 4.1 4.05 4.04 4.06 4.12 4.19 4.09 3.89 4.04
1861.464 4 3.77 3.73 3.62 3.55 3.58 3.49 3.46 3.39 3.2
1880.754 3.05 2.99 2.83 2.72 2.82 2.79 2.62 2.54 2.59 2.62
1900.043 2.6 2.46 2.39 2.35 2.21 2.16 2.16 2.21 2.21 2.21
1919.333 2.12 2.01 1.93 1.89 1.91 1.97 2 1.96 2 1.84
1938.623 1.7 1.73 1.73 1.66 1.47 1.44 1.46 1.47 1.46 1.69
1957.913 1.75 1.72 1.69 1.38 1.44 1.57 1.44 1.45 1.55 1.59
1977.202 1.69 1.66 1.54 1.52 1.62 1.82 1.88 1.72 1.64 1.66
1996.492 1.63 1.69 1.65 1.59 1.76 1.76 1.54 1.51 1.62 1.56
2015.782 1.52 1.59 1.78 1.77 1.71 1.86 1.93 1.96 1.85 1.81
2035.072 1.81 1.69 1.75 1.94 2.08 2.08 2.09 2.11 2.1 2.08
2054.362 2.11 2.09 2.06 2.08 2.04 2.25 2.27 2.08 2.19 2.26
2073.651 2.35 2.38 2.25 2.33 2.35 2.06 2.05 2.13 2.09 2.11
2092.941 2.05 2.1 2.23 2.32 2.4 2.31 2.17 2.26 2.31 2.36
2112.231 2.52 2.63 2.67 2.77 2.92 2.95 2.94 3.07 3.12 3.14
2131.521 3.38 3.52 3.35 3.23 3.24 3.19 3.15 3.13 3.3 3.3
2150.810 3.16 3.08 3.01 3.09 3.09 3.04 2.97 2.83 2.8 2.83
2170.100 2.73 2.6 2.79 2.88 2.65 2.62 2.69 2.56 2.39 2.49
2189.390 2.64 2.64 2.59 2.49 2.49 2.47 2.42 2.29 2.15 2.3
2208.680 2.37 2.21 2.09 2.18 2.19 2.03 1.9 1.97 1.98 1.81
2227.970 1.79 1.81 1.79 1.76 1.73 1.65 1.49 1.48 1.41 1.37
2247.259 1.56 1.54 1.52 1.68 1.66 1.42 1.44 1.47 1.36 1.35
2266.549 1.36 1.32 1.19 1.22 1.34 1.2 1.19 1.2 1.1 0.9557
2285.839 0.8115 0.9649 1.08 0.993 1 1.05 0.9473 0.9049 0.8555 0.7706
2305.129 0.821 0.9069 0.8818 1.02 1.22 1.12 0.9498 0.9862 0.9963 0.9548
2324.418 1.02 1.15 1.16 1.24 1.22 1.08 1.23 1.38 1.33 1.18
2343.708 1.16 1.2 1.23 1.24 1.3 1.46 1.54 1.52 1.45 1.39
2362.998 1.34 1.12 1 1.09 1.01 1.08 1.14 1.02 1.1 1.24
2382.288 1.27 1.21 1.24 1.13 1.15 1.13 1.09 1.11 0.9727 1.08
2401.578 1.11 1.11 1.03 1.04 1.24 1.04 0.912 1.07 1.17 1.12
2420.867 1.23 1.19 1.04 1.06 1.02 0.9167 0.938 1.11 1.17 1.15
2440.157 1.19 1.12 1.02 1.04 0.99 1.06 1.17 1.2 1.28 1.2
2459.447 1.01 1.05 1.22 1.34 1.35 1.31 1.3 1.3 1.34 1.28
2478.737 1.16 1.13 1.19 1.38 1.3 1.21 1.18 1.18 1.37 1.33
2498.026 1.17 1.12 1.22 1.2 1.2 1.33 1.36 1.31 1.27 1.33
2517.316 1.32 1.16 1.13 1.16 1.22 1.23 1.23 1.32 1.34 1.3
2536.606 1.14 1.18 1.38 1.36 1.36 1.25 1.22 1.38 1.39 1.28
2555.896 1.25 1.26 1.37 1.42 1.38 1.45 1.38 1.33 1.42 1.57
2575.186 1.8 1.73 1.66 1.87 1.87 1.71 1.64 1.72 2 2.34
2594.475 2.14 1.91 1.9 1.88 1.9 2.05 2.08 2.14 2.35 2.31
2613.765 2.19 2.17 2.13 1.97 2.06 2.26 2.28 2.26 2.2 2.33
2633.055 2.38 2.23 2.13 2.06 2.17 2.28 2.37 2.4 2.39 2.49
2652.345 2.55 2.65 2.82 2.67 2.59 2.73 2.66 2.76 2.9 2.87
2671.634 2.85 3.03 3.31 3.4 3.4 3.44 3.14 3.02 3.28 3.46
2690.924 3.48 3.42 3.56 3.5 3.49 3.44 3.4 3.43 3.38 3.47
2710.214 3.49 3.42 3.45 3.7 3.81 3.68 3.72 3.71 3.85 4.11
2729.504 4.05 3.91 3.79 3.66 3.81 3.99 3.96 4.02 3.87 3.89
2748.794 4.12 4.29 4.38 4.41 4.55 4.25 4.23 4.48 4.38 4.31
2768.083 4.44 4.35 4.17 4.19 4.3 4.48 4.5 4.41 4.53 4.71
2787.373 5.01 5.27 5.19 5.34 5.73 6.01 6.48 6.87 7.05 7.52
2806.663 8.05 8.57 8.96 9.62 10.73 11.61 12.54 13.52 14.6 16.21
2825.953 17.82 19.54 21.48 23.42 25.7 28.12 30.83 34.03 36.91 39.95
2845.242 43.52 47.16 50.85 54.6 58.7 63.01 66.87 70.26 73.48 76.27
2864.532 78.82 81.21 84.11 87.43 90.44 92.65 94.1 95.82 97.82 100.05
2883.822 101.08 99.77 98.48 98.69 99.62 100.75 101.94 103.16 104.27 105.67
2903.112 107.16 108.54 110.66 113.56 117.18 121.34 125.9 130.99 136.4 142.17
2922.401 148.51 155.28 162.07 168.66 174.75 180.39 186.32 192.9 200.6 209.43
2941.691 219.13 229.51 240.29 251.48 262.7 273.61 283.91 292.63 299.49 302.92
2960.981 302.85 300.51 297.05 292.93 290.49 291.9 293.41 291.52 287.62 287.12
2980.271 299.21 331.91 363.95 324.8 248.9 209.66 191.92 176.75 162.38 149.07
2999.561 137.62 126.61 116.58 107.14 97.87 88.77 79.52 70.01 61.24 53.21
3018.850 45.49 38.5 32.64 27.63 23.23 19.7 16.86 14.65 12.79 11.42
3038.140 10.51 9.66 9.17 8.81 8.53 8.14 7.48 7.28 7.46 7.32
3057.430 7.29 7.14 6.81 6.71 6.74 6.61 6.15 5.88 5.68 5.6
3076.720 5.63 5.2 4.89 5.01 4.85 4.58 4.42 4.33 4.2 3.82
3096.009 3.69 3.76 3.74 3.75 3.59 3.3 3.37 3.49 3.17 2.89
3115.299 2.83 2.78 2.89 3.16 3.07 2.92 2.8 2.68 2.63 2.61
3134.589 2.68 2.71 2.72 2.62 2.52 2.64 2.74 2.49 2.44 2.34
3153.879 2.16 2.24 2.04 1.97 2.16 2.2 1.98 1.64 1.68 1.87
3173.169 1.82 1.54 1.49 1.61 1.44 1.33 1.41 1.56 1.71 1.39
3192.458 1.29 1.47 1.39 1.28 1.37 1.3 1.17 1.29 1.39 1.56
3211.748 1.56 1.47 1.55 1.47 1.4 1.43 1.32 1.25 1.21 1.26
3231.038 1.12 1.03 1.15 1.21 1.35 1.42 1.4 1.3 0.9985 1.01
3250.328 1.38 1.25 0.9897 1.16 0.9944 0.8083 1.06 0.9377 0.9808 1.23
3269.617 1.01 1.09 0.8529 0.5605 0.9631 1.25 1.38 1.17 0.9524 1.3
3288.907 1.41 1.18 1.06 1.03 1.28 1.16 1.17 1.56 1.56 1.66
3308.197 1.9 1.97 2.01 1.99 2.19 2.38 2.19 2.49 2.77 2.65
3327.487 2.77 2.97 3.18 3.45 3.44 3.22 3.41 3.59 3.18 2.97
3346.777 3 3.17 3.29 3.11 2.84 2.72 2.92 2.89 2.8 2.7
3366.066 2.7 2.69 2.29 2.15 2.22 2.14 2.01 2.19 2.35 2.25
3385.356 2.21 2.29 2.22 2.08 2.04 2.29 2.41 2.05 2.2 2.18
3404.646 2.03 2.38 2.65 2.43 2.1 2.09 1.97 2 2.1 1.79
3423.936 1.61 1.6 1.51 1.55 1.61 1.58 1.61 1.51 1.54 1.46
3443.225 1.08 1.12 1.23 1.22 1.12 1.08 1.17 1.19 1.22 0.7617
3462.515 0.846 1.24 0.9705 0.8685 0.9985 1.02 0.7889 1.06 1.2 0.9892
3481.805 0.7552 0.5837 0.6738 0.8014 0.8753 1.14 1.22 1.04 0.8532 0.5427
3501.095 0.6801 0.8633 0.8861 0.7902 1.01 1.02 0.8506 1.06 1.33 1.22
3520.385 0.6798 0.5272 0.6504 0.9007 1.36 1.21 0.9243 0.8704 1.05 1.26
3539.674 1.15 1.01 0.7933 1.05 1.01 1.04 1.39 1.32 1.32 1.29
3558.964 1.07 1.14 1.23 1.22 1.2 1.11 1.27 1.42 1.52 1.37
3578.254 1.21 1.35 1.28 1.4 1.49 1.24 1.1 1.22 1.38 1.23
3597.544 1.28 1.21 0.8945 0.9635 1.15 1.13 0.9665 0.8688 0.8173 0.9947
3616.833 0.9788 0.9122 1.23 1.32 1.12 1.18 1.34 1.1 1.18 1.13
3636.123 0.9958 1.06 0.7797 0.9792 1.09 1.28 1.67 1.23 1.23 1.41
3655.413 1.16 1.07 1.17 1.12 1.1 1.16 1.17 1.23 1.21 1.34
3674.703 1.34 1.31 1.38 1.39 1.46 1.39 1.39 1.57 1.54 1.62
3693.993 1.67 1.37 1.25 1.46 1.52 1.34 1.33 1.5 1.64 1.87
3713.282 2.04 2.06 1.97 1.68 1.43 1.23 1.1 1.31 1.7 1.78
3732.572 1.33 1.22 1.4 1.63 1.7 1.46 1.71 1.78 1.62 1.6
3751.862 1.32 1.11 1.35 1.34 1.04 0.9916 1.22 1.51 1.24 1.13
3771.152 1.47 1.64 1.52 1.08 1.08 1.4 1.46 1.34 1.23 0.9823
3790.441 1.07 1.47 1.26 0.7845 0.728 1.24 1.39 1.35 1.51 1.5
3809.731 1.15 0.876 1.11 1.25 1.24 1.27 1.4 1.32 1.39 1.96
3829.021 1.96 1.77 1.86 1.85 1.46 1.38 1.75 1.7 1.8 1.64
3848.311 1.36 1.39 1.59 1.72 1.65 1.76 1.8 1.84 2.13 2.1
3867.601 2 2.08 1.76 1.66 1.65 1.53 1.39 1.28 1.71 1.99
3886.890 1.64 1.27 1.19 1.41 1.36 1.13 1.26 1.55 1.53 1.45
3906.180 1.43 1.46 1.52 1.7 1.68 1.47 1.2 1.1 1.53 1.78
3925.470 2.07 2.08 1.67 1.53 1.51 1.41 1.7 1.92 1.8 1.82
3944.760 1.96 1.71 1.49 1.76 1.66 1.31 1.59 1.64 1.25 1.6
3964.049 1.72 1.41 1.3 1.25 1.27 1.12 0.6842 1.08 1.7 1.53
3983.339 1.62 1.78 1.65 1.34 1.27 1.32 1.34 1.2 0.9943 0.9881
##END=
