##TITLE=3-Methyl-1,4-pentadiene
##JCAMP-DX=4.24
##DATA TYPE=INFRARED SPECTRUM
##ORIGIN=NIST Mass Spectrometry Data Center
##OWNER=NIST Standard Reference Data Program
Collection (C) 2009 copyright by the U.S. Secretary of Commerce
on behalf of the United States of America. All rights reserved.
##CAS REGISTRY NO=1115-08-8
##MOLFORM=C 6 H 10
##$NIST SOURCE=MSDC-IR
##SPECTROMETER/DATA SYSTEM=HP-GC/MS/IRD
##STATE=gas
##XUNITS=1/CM
##YUNITS=ABSORBANCE
##XFACTOR=1.0
##YFACTOR=0.000002900
##DELTAX=4.0
##FIRSTX=550.0
##LASTX=3846.0
##FIRSTY=0.000580
##MAXX=3846
##MINX=550
##MAXY=0.029
##MINY=0
##NPOINTS=825
##XYDATA=(X++(Y..Y))
550.0 200 161 113 98 92 108 116 77 91 85
590.0 93 116 120 136 183 226 276 338 433 577
630.0 673 708 739 786 887 956 958 988 1044 1135
670.0 1251 1354 1431 1512 1564 1540 1467 1355 1192 991
710.0 798 630 468 330 267 200 132 132 130 106
750.0 71 45 18 0 8 16 12 10 26 42
790.0 62 56 55 105 129 118 161 217 255 304
830.0 361 412 447 480 525 587 620 658 721 775
870.0 862 1004 1231 1563 2070 2801 3809 5083 6464 7685
910.0 8525 9122 9721 9623 8491 7139 5790 4526 3489 2741
950.0 2271 2018 1957 2034 2220 2508 2894 3344 3829 4261
990.0 4556 4733 4750 4468 3926 3312 2739 2233 1846 1564
1030.0 1363 1255 1197 1160 1149 1131 1094 1042 964 868
1070.0 796 744 664 577 519 463 423 390 357 336
1110.0 322 311 328 366 372 353 342 331 314 287
1150.0 240 201 168 146 136 126 125 122 114 125
1190.0 139 132 127 134 131 110 99 114 122 122
1230.0 129 147 176 203 241 293 361 420 484 553
1270.0 632 685 713 704 658 593 548 519 484 435
1310.0 392 370 346 326 311 303 297 288 313 360
1350.0 401 478 588 692 772 832 886 950 991 992
1390.0 989 1033 1135 1248 1354 1438 1475 1460 1391 1293
1430.0 1190 1107 1063 1044 1055 1094 1151 1235 1261 1119
1470.0 952 847 737 614 493 384 292 221 183 162
1510.0 130 114 107 101 95 95 106 127 144 155
1550.0 170 189 227 246 255 276 306 342 361 398
1590.0 451 521 617 740 921 1183 1541 2012 2495 2879
1630.0 3127 3279 3266 3103 2866 2432 1809 1269 895 636
1670.0 477 385 322 290 263 233 214 197 174 159
1710.0 160 146 122 105 106 104 92 72 51 43
1750.0 42 43 42 41 41 48 54 61 73 79
1790.0 89 106 117 153 227 320 434 587 734 846
1830.0 916 937 927 884 789 646 492 356 246 170
1870.0 127 101 81 67 64 66 67 61 55 61
1910.0 58 46 39 39 42 48 46 45 47 55
1950.0 67 76 89 101 116 127 131 124 111 105
1990.0 98 84 75 61 54 45 31 26 33 37
2030.0 23 19 28 30 32 29 33 35 27 28
2070.0 26 25 28 28 28 25 22 26 25 21
2110.0 26 27 21 22 18 11 11 3 3 17
2150.0 15 9 13 13 10 9 12 14 15 23
2190.0 18 8 7 2 4 6 4 7 8 9
2230.0 22 26 18 18 17 9 12 28 36 29
2270.0 25 25 30 38 35 25 26 29 38 51
2310.0 44 29 28 34 41 49 40 31 31 29
2350.0 23 22 32 33 44 43 35 44 50 52
2390.0 48 43 45 52 51 54 65 57 47 48
2430.0 52 47 47 46 49 52 48 53 52 43
2470.0 45 35 24 34 35 20 23 36 42 47
2510.0 49 47 49 57 62 58 58 72 72 71
2550.0 69 61 68 66 68 54 51 60 59 60
2590.0 53 44 44 51 58 54 39 36 36 31
2630.0 23 30 38 35 33 34 37 39 50 54
2670.0 45 39 45 47 43 39 49 73 83 76
2710.0 83 98 111 126 127 123 128 129 130 124
2750.0 115 102 91 87 90 91 86 96 99 95
2790.0 104 124 151 168 185 210 236 273 299 322
2830.0 365 416 488 599 743 940 1194 1500 1835 2175
2870.0 2516 2843 3069 3151 3135 3088 3033 2941 2838 2766
2910.0 2749 2789 2876 3003 3161 3314 3442 3577 3799 4129
2950.0 4556 5148 6042 7367 8947 9712 9887 10000 9677 9373
2990.0 8586 7296 6187 5390 4803 4258 3757 3310 2917 2530
3030.0 2137 1813 1634 1590 1619 1728 1915 2191 2569 3055
3070.0 3661 4296 4742 5087 5426 5072 4410 4071 3576 2787
3110.0 1976 1362 971 735 591 503 445 410 383 354
3150.0 325 297 267 249 248 246 239 229 222 200
3190.0 174 179 180 170 178 162 148 148 125 111
3230.0 115 121 117 99 85 91 98 101 95 86
3270.0 92 93 99 109 96 89 106 109 79 57
3310.0 62 71 65 53 53 57 51 46 52 38
3350.0 28 40 46 45 52 53 50 62 58 48
3390.0 41 49 58 52 50 32 30 32 25 40
3430.0 52 33 18 31 26 17 11 19 31 19
3470.0 19 28 17 5 15 27 34 36 32 36
3510.0 24 23 24 20 32 34 25 31 47 39
3550.0 26 18 10 9 9 16 30 30 21 2
3590.0 14 27 18 14 20 25 19 15 39 43
3630.0 38 45 22 9 14 20 16 27 25 42
3670.0 60 51 48 40 34 42 52 49 39 45
3710.0 52 57 42 19 27 40 36 31 29 33
3750.0 40 38 44 43 49 62 38 19 32 27
3790.0 25 34 32 21 38 62 59 57 55 54
3830.0 37 20 23 31 38
##END=
