##TITLE=.beta.-Aminopropionitrile
##JCAMP-DX=4.24
##DATA TYPE=INFRARED SPECTRUM
##ORIGIN=NIST Mass Spectrometry Data Center
##OWNER=NIST Standard Reference Data Program
Collection (C) 2009 copyright by the U.S. Secretary of Commerce
on behalf of the United States of America. All rights reserved.
##CAS REGISTRY NO=151-18-8
##MOLFORM=C 3 H 6 N 2
##$NIST SOURCE=MSDC-IR
##SPECTROMETER/DATA SYSTEM=HP-GC/MS/IRD
##STATE=gas
##XUNITS=1/CM
##YUNITS=ABSORBANCE
##XFACTOR=1.0
##YFACTOR=0.000001500
##DELTAX=4.0
##FIRSTX=550.0
##LASTX=3846.0
##FIRSTY=0.001751
##MAXX=3846
##MINX=550
##MAXY=0.015
##MINY=0
##NPOINTS=825
##XYDATA=(X++(Y..Y))
550.0 1167 1260 576 713 664 712 721 686 630 629
590.0 665 663 605 632 673 702 751 788 877 989
630.0 1067 1123 1173 1287 1438 1588 1727 1849 1993 2183
670.0 2376 2572 2838 3144 3453 3833 4264 4714 5224 5761
710.0 6258 6728 7255 7835 8388 8909 9374 9705 9846 9912
750.0 10000 9894 9588 9165 8510 7731 6998 6501 6132 5636
790.0 5132 4781 4515 4195 3881 3591 3329 3083 2893 2699
830.0 2400 2096 1872 1729 1660 1568 1491 1447 1368 1278
870.0 1195 1107 1052 993 931 879 819 778 766 745
910.0 725 721 719 751 815 860 810 754 749 744
950.0 722 681 655 688 725 654 604 638 720 765
990.0 785 811 816 838 847 808 718 672 702 757
1030.0 821 921 1059 1237 1493 1820 2243 2686 3125 3563
1070.0 3872 4070 4127 4004 3735 3342 2965 2588 2142 1686
1110.0 1282 979 765 600 467 354 266 233 204 133
1150.0 89 52 51 45 1 0 19 19 10 23
1190.0 56 88 88 92 115 135 164 208 211 212
1230.0 237 250 248 225 222 226 209 190 208 243
1270.0 277 298 326 369 416 489 551 600 665 735
1310.0 792 857 919 955 998 1053 1125 1217 1323 1424
1350.0 1519 1619 1742 1872 2047 2209 2312 2360 2358 2317
1390.0 2255 2216 2177 2103 1987 1892 1866 1868 1893 1906
1430.0 1916 1869 1802 1774 1679 1544 1402 1279 1194 1104
1470.0 1019 951 899 867 818 757 703 648 614 577
1510.0 554 553 526 521 534 537 541 529 528 560
1550.0 589 604 619 682 752 815 893 986 1110 1250
1590.0 1419 1612 1830 2091 2379 2698 3000 3239 3401 3454
1630.0 3415 3321 3193 2991 2690 2334 1980 1721 1499 1274
1670.0 1091 973 857 745 671 637 593 550 543 544
1710.0 542 531 521 534 538 525 523 533 530 523
1750.0 514 522 534 532 548 562 567 575 582 598
1790.0 615 626 633 632 645 664 661 663 661 663
1830.0 661 657 655 627 614 626 624 616 619 611
1870.0 606 610 611 604 601 606 601 594 588 589
1910.0 584 590 596 593 589 581 577 579 579 574
1950.0 572 586 592 589 591 596 598 598 594 600
1990.0 608 604 616 629 620 626 621 615 628 634
2030.0 630 637 644 626 624 642 639 635 640 657
2070.0 658 659 665 664 660 654 655 658 658 662
2110.0 664 670 680 677 659 652 649 646 638 649
2150.0 654 640 644 658 660 645 638 643 648 653
2190.0 657 664 671 669 664 679 689 706 752 803
2230.0 865 932 988 1046 1097 1118 1120 1108 1103 1077
2270.0 999 914 841 793 764 740 711 695 679 661
2310.0 662 664 649 626 619 609 599 607 618 617
2350.0 617 616 612 621 631 636 641 639 640 644
2390.0 637 631 639 650 654 652 654 647 647 648
2430.0 651 665 668 666 661 653 661 653 645 643
2470.0 636 636 630 631 624 619 614 607 605 622
2510.0 626 621 637 628 618 620 611 607 609 630
2550.0 642 641 646 649 670 678 666 677 699 711
2590.0 704 704 726 737 745 746 744 749 745 746
2630.0 750 747 739 735 736 738 745 741 756 780
2670.0 780 788 808 828 836 860 873 860 882 914
2710.0 926 943 956 962 985 1008 1010 1015 1035 1052
2750.0 1067 1093 1101 1079 1078 1082 1070 1078 1075 1066
2790.0 1067 1075 1108 1136 1169 1226 1302 1379 1459 1568
2830.0 1716 1883 2065 2264 2502 2787 3110 3456 3793 4102
2870.0 4455 4834 5092 5152 5084 4996 4913 4799 4705 4652
2910.0 4624 4665 4802 5010 5289 5692 6181 6622 7038 7382
2950.0 7527 7474 7355 7322 7201 6663 5889 5156 4498 3842
2990.0 3246 2761 2353 2003 1694 1456 1281 1139 1052 991
3030.0 910 856 835 815 807 800 797 784 754 755
3070.0 772 765 732 706 695 683 664 647 664 678
3110.0 675 684 679 671 678 686 699 703 688 687
3150.0 709 714 695 696 709 703 711 732 761 775
3190.0 762 769 765 751 783 797 794 796 775 769
3230.0 769 773 782 765 741 736 746 752 740 724
3270.0 718 706 682 661 660 669 683 664 671 701
3310.0 695 703 715 707 728 762 782 796 838 876
3350.0 892 911 909 913 912 908 909 880 862 869
3390.0 861 857 883 925 991 1042 1049 1094 1140 1150
3430.0 1133 1125 1094 1054 996 908 876 860 809 788
3470.0 793 747 698 688 716 723 678 660 676 676
3510.0 690 686 685 689 665 667 699 686 679 680
3550.0 668 681 669 658 667 669 646 642 656 651
3590.0 639 629 637 654 649 644 641 627 647 646
3630.0 630 653 667 671 640 605 619 637 655 639
3670.0 610 613 636 631 609 607 626 634 618 620
3710.0 617 607 621 607 596 624 629 623 621 606
3750.0 605 615 617 655 658 626 623 630 632 623
3790.0 632 642 649 648 628 610 607 596 601 627
3830.0 631 614 609 618 614
##END=
