##TITLE=1-Pentanethiol
##JCAMP-DX=4.24
##DATA TYPE=INFRARED SPECTRUM
##ORIGIN=NIST Mass Spectrometry Data Center
##OWNER=NIST Standard Reference Data Program
Collection (C) 2009 copyright by the U.S. Secretary of Commerce
on behalf of the United States of America. All rights reserved.
##CAS REGISTRY NO=110-66-7
##MOLFORM=C 5 H 12 S
##$NIST SOURCE=MSDC-IR
##SPECTROMETER/DATA SYSTEM=HP-GC/MS/IRD
##STATE=gas
##XUNITS=1/CM
##YUNITS=ABSORBANCE
##XFACTOR=1.0
##YFACTOR=0.000003500
##DELTAX=4.0
##FIRSTX=550.0
##LASTX=3846.0
##FIRSTY=0.000151
##MAXX=3846
##MINX=550
##MAXY=0.035
##MINY=0
##NPOINTS=825
##XYDATA=(X++(Y..Y))
550.0 43 0 6 15 17 23 37 19 27 39
590.0 30 18 15 25 38 47 40 30 58 77
630.0 74 84 90 102 120 133 131 122 104 97
670.0 96 121 126 116 138 162 177 197 219 250
710.0 303 338 354 362 366 384 395 395 393 373
750.0 345 324 298 270 252 230 203 191 181 161
790.0 144 140 142 140 127 115 112 118 122 122
830.0 130 142 154 156 161 166 160 163 163 170
870.0 176 179 190 194 195 205 204 206 213 216
910.0 222 212 216 217 210 224 219 189 178 168
950.0 151 145 139 131 134 127 123 132 149 162
990.0 169 155 146 158 165 154 139 148 144 126
1030.0 121 108 120 132 112 95 104 100 66 90
1070.0 136 138 143 159 173 196 214 234 241 221
1110.0 218 218 192 157 127 123 121 113 107 113
1150.0 109 108 109 113 119 137 158 161 176 189
1190.0 195 205 208 215 230 252 282 325 362 388
1230.0 410 411 410 425 465 527 592 669 745 816
1270.0 871 891 884 871 852 816 782 762 738 707
1310.0 664 601 540 492 455 439 437 444 456 458
1350.0 445 426 409 399 396 403 433 460 471 473
1390.0 469 435 381 344 326 327 346 385 456 560
1430.0 685 811 933 1039 1131 1186 1214 1216 1199 1145
1470.0 1047 923 797 669 547 451 374 308 258 213
1510.0 183 172 158 143 134 128 121 112 103 101
1550.0 101 93 76 71 74 75 71 68 72 68
1590.0 66 70 67 65 63 67 62 55 54 60
1630.0 62 54 54 57 51 43 47 54 51 47
1670.0 48 47 47 44 39 42 44 44 39 41
1710.0 39 39 40 36 35 35 35 34 31 33
1750.0 32 32 35 30 32 30 26 29 29 34
1790.0 37 34 29 27 27 27 30 30 30 30
1830.0 21 19 20 21 29 31 29 28 23 20
1870.0 18 17 17 14 11 20 26 25 23 19
1910.0 19 17 12 14 18 17 23 28 22 22
1950.0 25 19 16 19 21 22 23 27 27 24
1990.0 21 27 32 21 19 24 24 28 31 25
2030.0 24 31 30 30 30 27 27 31 33 25
2070.0 22 26 25 20 20 23 26 31 25 15
2110.0 19 25 17 13 16 13 14 19 21 25
2150.0 25 24 29 42 36 29 28 25 24 25
2190.0 24 26 23 22 29 29 24 23 26 29
2230.0 23 23 23 21 18 18 24 24 22 19
2270.0 16 25 29 23 21 22 21 22 23 15
2310.0 14 20 21 19 17 16 15 24 26 22
2350.0 17 21 20 13 18 25 26 24 20 20
2390.0 16 15 19 20 22 20 20 21 18 23
2430.0 24 16 12 16 19 17 14 10 11 15
2470.0 19 18 12 7 6 7 11 22 17 12
2510.0 21 24 23 27 28 25 33 42 51 50
2550.0 46 50 58 77 86 87 100 123 149 176
2590.0 185 192 192 175 154 142 134 117 101 96
2630.0 98 101 115 121 120 117 108 113 125 124
2670.0 137 148 134 130 136 131 120 125 127 134
2710.0 154 161 154 149 150 156 168 178 182 191
2750.0 202 208 206 197 196 213 223 224 245 274
2790.0 305 332 343 355 394 441 474 531 608 699
2830.0 836 1004 1209 1472 1796 2160 2544 2916 3242 3529
2870.0 3759 3931 4046 4035 3937 3853 3776 3743 3863 4199
2910.0 4743 5462 6309 7243 8191 9053 9694 10000 9969 9734
2950.0 9407 9086 8911 8895 8747 8219 7448 6473 5221 3953
2990.0 2960 2253 1748 1391 1132 943 810 702 633 582
3030.0 524 474 440 416 387 359 334 301 271 256
3070.0 241 238 240 228 209 195 195 193 174 169
3110.0 183 177 154 140 134 134 138 131 135 135
3150.0 121 116 119 110 110 118 112 108 109 103
3190.0 107 108 101 107 100 88 77 66 58 60
3230.0 53 45 50 52 44 31 30 38 40 37
3270.0 34 36 42 37 24 18 30 49 39 22
3310.0 19 18 14 19 31 30 31 41 35 27
3350.0 33 38 32 22 16 20 25 21 21 44
3390.0 53 43 38 38 34 14 6 13 15 19
3430.0 41 37 27 39 37 26 28 36 37 43
3470.0 47 25 9 21 35 21 9 23 15 10
3510.0 17 13 32 39 25 31 34 34 20 14
3550.0 39 38 42 44 33 34 36 31 34 41
3590.0 51 45 45 60 62 53 49 39 40 46
3630.0 52 54 62 58 38 28 38 47 48 44
3670.0 44 44 42 45 40 28 29 47 54 55
3710.0 56 50 39 39 39 38 26 20 33 36
3750.0 39 47 45 55 71 72 61 56 58 46
3790.0 45 54 51 28 17 40 46 48 61 54
3830.0 46 59 61 49 49
##END=
