##TITLE=Isopropylcyclopropane
##JCAMP-DX=4.24
##DATA TYPE=INFRARED SPECTRUM
##ORIGIN=NIST Mass Spectrometry Data Center
##OWNER=NIST Standard Reference Data Program
Collection (C) 2009 copyright by the U.S. Secretary of Commerce
on behalf of the United States of America. All rights reserved.
##CAS REGISTRY NO=3638-35-5
##MOLFORM=C 6 H 12
##$NIST SOURCE=MSDC-IR
##SPECTROMETER/DATA SYSTEM=HP-GC/MS/IRD
##STATE=gas
##XUNITS=1/CM
##YUNITS=ABSORBANCE
##XFACTOR=1.0
##YFACTOR=0.000003400
##DELTAX=4.0
##FIRSTX=550.0
##LASTX=3846.0
##FIRSTY=0.000048
##MAXX=3846
##MINX=550
##MAXY=0.034
##MINY=0
##NPOINTS=825
##XYDATA=(X++(Y..Y))
550.0 14 23 31 44 58 41 47 36 7 43
590.0 68 35 9 0 19 44 22 26 43 36
630.0 27 27 52 54 42 34 27 33 30 30
670.0 42 34 35 50 45 44 56 79 82 75
710.0 81 81 73 78 93 88 81 67 54 56
750.0 51 41 48 49 47 53 68 87 91 110
790.0 175 258 349 452 561 662 683 648 655 656
830.0 592 521 460 403 390 424 481 546 591 627
870.0 655 625 587 562 499 430 385 359 359 353
910.0 353 359 354 341 336 358 379 415 449 463
950.0 486 483 456 441 403 341 293 259 248 266
990.0 329 449 624 846 1042 1169 1282 1328 1237 1159
1030.0 1051 850 649 482 377 330 276 221 181 156
1070.0 151 155 166 185 208 231 243 249 267 270
1110.0 265 273 278 266 269 280 289 315 345 363
1150.0 369 379 375 368 365 351 310 251 219 219
1190.0 224 227 226 231 243 242 233 220 205 180
1230.0 161 156 137 116 113 108 106 128 166 210
1270.0 264 335 411 469 526 560 575 594 558 471
1310.0 400 371 364 354 329 285 269 275 298 343
1350.0 411 508 628 746 815 902 1052 1120 1090 983
1390.0 842 726 605 501 424 367 342 360 389 430
1430.0 481 559 670 781 878 971 1058 1141 1205 1215
1470.0 1197 1132 990 840 714 593 475 365 275 206
1510.0 159 130 101 77 64 55 58 53 37 39
1550.0 44 39 32 27 33 38 37 36 47 53
1590.0 39 38 43 47 46 49 54 52 52 55
1630.0 58 59 54 53 55 54 53 52 55 55
1670.0 48 46 45 46 42 38 37 35 41 44
1710.0 41 42 45 45 49 50 50 51 53 51
1750.0 45 48 54 47 42 43 37 36 40 39
1790.0 37 38 43 49 46 46 54 54 52 56
1830.0 56 51 48 48 51 54 59 61 59 57
1870.0 60 64 62 63 70 75 85 90 91 100
1910.0 103 102 102 97 91 82 70 58 52 52
1950.0 53 49 41 38 34 37 36 31 32 34
1990.0 34 31 33 35 32 32 41 49 58 70
2030.0 74 80 87 96 105 113 115 112 107 101
2070.0 96 83 71 66 63 60 51 44 40 30
2110.0 20 16 13 8 12 18 17 13 11 12
2150.0 14 17 13 6 5 13 16 13 13 20
2190.0 29 24 18 24 29 24 22 25 26 28
2230.0 31 32 25 23 26 32 30 22 22 26
2270.0 21 17 13 3 1 11 10 11 14 11
2310.0 10 9 6 7 11 6 2 6 13 8
2350.0 3 1 0 1 9 14 16 17 22 27
2390.0 28 26 21 21 16 15 16 14 14 18
2430.0 23 22 20 21 21 28 34 44 54 49
2470.0 51 54 59 59 56 54 45 38 39 38
2510.0 39 33 23 18 23 32 35 35 28 33
2550.0 37 42 47 46 45 38 45 58 62 67
2590.0 72 75 78 88 87 81 85 87 87 84
2630.0 76 75 74 68 68 75 81 76 74 70
2670.0 65 67 64 64 68 72 77 74 79 85
2710.0 96 107 112 128 143 152 164 174 179 184
2750.0 183 177 174 174 170 162 166 173 173 169
2790.0 177 194 205 221 247 262 276 302 329 363
2830.0 402 452 516 606 725 897 1137 1464 1875 2317
2870.0 2724 3064 3337 3620 3877 3887 3748 3611 3466 3344
2910.0 3252 3211 3248 3378 3605 3911 4264 4697 5266 5992
2950.0 6927 8064 9489 10000 9335 8917 8458 7818 6843 5615
2990.0 4733 4432 4233 3860 3585 3436 3352 3083 2640 2182
3030.0 1756 1402 1123 925 824 806 878 1037 1274 1566
3070.0 1878 2122 2504 2868 2502 2097 1955 1639 1272 935
3110.0 676 484 369 299 258 230 211 204 195 195
3150.0 205 203 213 220 219 228 225 210 197 190
3190.0 191 188 161 139 131 115 111 106 91 80
3230.0 70 56 50 51 45 50 52 49 51 46
3270.0 49 45 46 56 57 60 60 57 52 51
3310.0 50 45 45 43 40 44 41 35 35 41
3350.0 43 41 48 53 42 46 52 43 40 43
3390.0 42 27 21 29 34 49 44 35 45 38
3430.0 38 45 48 46 35 29 27 21 20 27
3470.0 37 35 39 41 29 28 32 24 24 29
3510.0 27 28 37 36 23 17 26 24 31 29
3550.0 21 24 23 21 13 4 1 11 20 21
3590.0 24 31 28 23 22 5 4 17 8 8
3630.0 13 9 15 13 11 20 18 10 4 0
3670.0 8 12 11 13 14 22 30 27 18 15
3710.0 11 10 18 21 27 24 11 22 27 16
3750.0 27 36 17 15 34 35 36 37 43 48
3790.0 46 43 47 50 47 53 64 54 54 67
3830.0 65 56 49 45 43
##END=
