##TITLE=3-Bromopentane
##JCAMP-DX=4.24
##DATA TYPE=INFRARED SPECTRUM
##ORIGIN=NIST Mass Spectrometry Data Center
##OWNER=NIST Standard Reference Data Program
Collection (C) 2009 copyright by the U.S. Secretary of Commerce
on behalf of the United States of America. All rights reserved.
##CAS REGISTRY NO=1809-10-5
##MOLFORM=C 5 H 11 Br
##$NIST SOURCE=MSDC-IR
##SPECTROMETER/DATA SYSTEM=HP-GC/MS/IRD
##STATE=gas
##XUNITS=1/CM
##YUNITS=ABSORBANCE
##XFACTOR=1.0
##YFACTOR=0.000001400
##DELTAX=4.0
##FIRSTX=550.0
##LASTX=3846.0
##FIRSTY=0.000363
##MAXX=3846
##MINX=550
##MAXY=0.014
##MINY=0
##NPOINTS=825
##XYDATA=(X++(Y..Y))
550.0 259 220 180 122 64 102 129 112 194 229
590.0 233 337 441 517 574 616 666 608 471 413
630.0 397 324 244 218 183 112 62 56 76 94
670.0 119 144 114 95 83 79 78 54 75 80
710.0 41 45 51 13 8 42 63 61 70 95
750.0 109 131 161 211 268 284 331 393 453 536
790.0 603 693 846 982 1043 1087 1055 1007 1001 996
830.0 942 932 910 866 880 916 919 855 796 770
870.0 712 616 502 404 327 323 352 353 382 401
910.0 421 450 416 404 365 301 236 157 122 115
950.0 99 87 87 76 104 108 121 152 139 152
990.0 172 149 122 142 185 216 262 297 294 291
1030.0 296 318 324 303 319 282 258 257 258 278
1070.0 264 267 268 233 186 209 270 305 360 377
1110.0 381 434 508 558 622 721 840 907 914 900
1150.0 856 766 620 458 337 308 415 590 843 1231
1190.0 1613 1904 2080 2115 1957 1587 1134 776 548 400
1230.0 321 325 352 363 359 342 389 458 526 615
1270.0 686 767 875 1001 1141 1265 1374 1428 1362 1250
1310.0 1126 926 708 540 452 424 392 358 344 349
1350.0 349 340 350 389 456 565 731 894 1038 1154
1390.0 1172 1037 840 651 490 384 340 346 410 506
1430.0 625 792 1038 1308 1512 1706 1876 1949 1933 1858
1470.0 1691 1424 1155 914 696 528 413 328 259 211
1510.0 188 173 154 150 157 156 154 147 144 142
1550.0 141 132 131 148 154 146 147 148 141 129
1590.0 128 130 123 115 115 116 107 105 108 103
1630.0 113 121 115 113 122 119 99 88 79 69
1670.0 73 75 68 43 35 45 30 13 17 26
1710.0 30 22 7 21 32 15 5 5 9 15
1750.0 15 12 11 25 23 14 10 13 20 26
1790.0 18 16 21 21 33 32 26 28 28 30
1830.0 33 37 31 25 22 19 23 23 30 37
1870.0 35 40 44 39 33 38 44 44 41 36
1910.0 31 35 41 45 48 39 39 50 41 34
1950.0 37 37 28 30 47 45 36 32 19 24
1990.0 33 31 26 33 45 42 40 38 34 42
2030.0 35 35 38 31 39 37 30 34 29 25
2070.0 32 31 22 25 33 36 32 39 33 28
2110.0 31 22 24 25 13 12 28 44 31 20
2150.0 27 23 20 27 34 35 33 25 24 37
2190.0 40 29 27 18 11 15 15 14 10 17
2230.0 35 33 31 24 7 14 27 29 28 32
2270.0 33 20 15 21 16 8 5 8 20 20
2310.0 20 19 19 16 5 5 5 25 36 35
2350.0 32 14 12 7 15 36 43 40 43 43
2390.0 56 70 62 60 56 56 54 54 53 59
2430.0 56 44 53 62 69 64 42 32 49 57
2470.0 45 38 38 40 41 34 39 46 40 46
2510.0 55 51 44 49 52 57 51 40 52 60
2550.0 45 44 54 54 59 58 66 75 71 69
2590.0 64 56 56 47 46 51 48 49 49 51
2630.0 65 71 62 55 57 61 61 52 60 58
2670.0 63 64 69 52 55 89 95 88 73 75
2710.0 89 103 108 107 122 134 150 156 155 164
2750.0 181 198 216 216 189 185 202 220 235 240
2790.0 250 256 258 292 325 348 372 412 461 498
2830.0 564 672 833 1020 1190 1356 1531 1672 1754 1848
2870.0 2042 2362 2770 3174 3533 3768 3899 3951 3928 3882
2910.0 3838 3829 3829 3806 3885 4211 4670 5148 5668 6200
2950.0 6728 7067 7365 7810 8275 9194 10000 9543 8614 7606
2990.0 6280 4825 3438 2341 1643 1219 960 818 685 600
3030.0 566 523 464 437 428 395 373 383 376 384
3070.0 388 373 368 353 354 348 289 261 273 252
3110.0 228 201 188 182 184 211 203 214 251 231
3150.0 196 207 226 224 214 197 182 182 154 127
3190.0 93 87 92 64 73 83 86 90 79 68
3230.0 38 40 48 34 38 41 31 43 59 26
3270.0 0 43 70 37 43 57 65 81 68 51
3310.0 47 35 20 21 42 49 42 57 51 26
3350.0 10 14 36 40 49 32 16 25 36 48
3390.0 50 43 19 5 17 26 23 51 41 29
3430.0 33 30 38 57 54 58 62 50 52 32
3470.0 35 43 41 40 25 32 43 30 15 14
3510.0 34 49 34 42 57 26 28 50 31 50
3550.0 65 54 67 61 15 23 52 61 72 56
3590.0 39 54 50 33 38 54 56 28 44 69
3630.0 53 29 18 60 67 47 56 65 81 61
3670.0 53 80 83 50 19 20 47 56 39 35
3710.0 49 62 66 79 69 57 47 55 52 43
3750.0 61 80 85 55 6 11 52 49 59 66
3790.0 63 62 44 51 55 49 42 48 70 63
3830.0 48 50 55 89 99
##END=
