##TITLE=4-Methyl-1,3-pentadiene
##JCAMP-DX=4.24
##DATA TYPE=INFRARED SPECTRUM
##ORIGIN=NIST Mass Spectrometry Data Center
##OWNER=NIST Standard Reference Data Program
Collection (C) 2009 copyright by the U.S. Secretary of Commerce
on behalf of the United States of America. All rights reserved.
##CAS REGISTRY NO=926-56-7
##MOLFORM=C 6 H 10
##$NIST SOURCE=MSDC-IR
##SPECTROMETER/DATA SYSTEM=HP-GC/MS/IRD
##STATE=gas
##XUNITS=1/CM
##YUNITS=ABSORBANCE
##XFACTOR=1.0
##YFACTOR=0.000001800
##DELTAX=4.0
##FIRSTX=550.0
##LASTX=3846.0
##FIRSTY=0.000137
##MAXX=3846
##MINX=550
##MAXY=0.018
##MINY=0
##NPOINTS=825
##XYDATA=(X++(Y..Y))
550.0 76 55 22 23 76 18 6 88 99 117
590.0 125 150 200 242 340 366 383 483 635 775
630.0 882 962 1042 1141 1242 1419 1619 1590 1364 1162
670.0 1037 941 764 553 400 340 289 211 165 142
710.0 145 151 119 74 98 161 194 125 126 200
750.0 196 222 261 221 178 197 265 307 288 238
790.0 250 314 327 306 283 266 251 298 315 345
830.0 413 500 577 603 647 725 835 981 1198 1501
870.0 1926 2468 3110 3752 4389 4801 5816 8039 7858 6012
910.0 5304 4875 4293 3530 2789 2119 1611 1286 1112 1069
950.0 1135 1263 1462 1709 2001 2339 2669 2956 3244 3510
990.0 3675 3527 3093 2719 2446 2125 1797 1508 1283 1130
1030.0 1023 946 966 1091 1257 1394 1463 1418 1308 1249
1070.0 1107 882 686 548 447 379 323 291 312 308
1110.0 288 298 287 282 309 348 356 332 323 342
1150.0 365 341 328 342 321 304 329 337 356 410
1190.0 507 657 844 1045 1153 1163 1170 1173 1130 975
1230.0 745 536 408 383 342 292 300 308 308 299
1270.0 293 309 359 385 399 424 446 472 487 507
1310.0 513 509 537 564 597 633 660 703 783 857
1350.0 923 1019 1182 1425 1720 2015 2188 2233 2371 2632
1390.0 2749 2693 2626 2640 2721 2727 2630 2562 2548 2537
1430.0 2464 2308 2169 2158 2189 2145 2024 1895 1778 1661
1470.0 1496 1331 1181 1040 929 854 808 746 719 733
1510.0 713 687 679 677 672 658 659 685 749 792
1550.0 812 802 782 791 784 757 737 777 912 1090
1590.0 1286 1478 1602 1711 1791 1820 1791 1678 1604 1625
1630.0 1712 1878 2116 2345 2517 2638 2700 2627 2402 2104
1670.0 1733 1312 947 644 452 348 261 230 236 240
1710.0 220 204 209 215 226 212 174 156 151 147
1750.0 146 147 151 155 170 193 223 282 395 599
1790.0 860 1093 1252 1301 1303 1325 1210 947 697 491
1830.0 356 285 245 211 183 164 149 126 118 123
1870.0 116 104 100 112 102 76 76 86 90 86
1910.0 86 93 87 75 81 103 110 114 119 132
1950.0 145 155 158 156 134 118 100 68 50 39
1990.0 35 38 28 25 19 16 33 48 50 42
2030.0 33 15 5 5 16 23 17 17 13 4
2070.0 9 14 6 8 15 29 38 28 25 20
2110.0 24 23 17 24 30 20 6 8 12 28
2150.0 33 38 41 33 42 41 32 31 33 43
2190.0 50 37 17 21 25 27 4 2 22 4
2230.0 0 8 19 18 14 15 23 26 22 20
2270.0 34 33 20 34 45 54 52 44 37 34
2310.0 38 29 37 57 63 53 53 74 63 34
2350.0 32 60 97 93 82 65 59 69 67 65
2390.0 69 80 86 70 69 83 89 80 59 62
2430.0 74 69 78 93 69 79 87 82 89 64
2470.0 60 80 77 73 75 54 47 74 75 68
2510.0 67 65 71 73 74 76 73 53 49 49
2550.0 43 45 57 68 62 47 49 60 80 76
2590.0 54 55 49 54 45 26 43 58 49 51
2630.0 59 55 59 43 53 67 51 69 67 44
2670.0 53 65 64 63 61 63 93 135 142 143
2710.0 174 206 245 307 380 468 538 565 603 628
2750.0 596 558 495 427 390 372 358 375 418 440
2790.0 462 501 532 565 634 700 768 847 902 999
2830.0 1163 1345 1578 1892 2317 2845 3415 3929 4362 4726
2870.0 5021 5246 5414 5535 5694 5894 6145 6514 7053 7765
2910.0 8600 9290 9674 9871 9984 10000 9793 9029 7896 7025
2950.0 6517 6277 6248 6350 6512 6603 6512 6418 6501 6573
2990.0 6437 6154 5929 5796 5666 5518 5360 5188 5022 4830
3030.0 4565 4243 3945 3691 3489 3360 3251 3144 3034 2974
3070.0 3037 3230 3547 3887 3903 3625 3447 3445 3254 2685
3110.0 2016 1485 1129 891 691 539 471 428 373 339
3150.0 305 262 247 236 223 208 185 176 190 176
3190.0 150 154 156 140 125 136 109 87 99 104
3230.0 110 99 70 70 96 88 84 78 68 75
3270.0 76 85 95 118 122 112 122 125 114 91
3310.0 73 81 92 83 76 63 74 83 70 83
3350.0 89 81 57 29 61 102 71 43 68 84
3390.0 57 43 52 64 57 39 34 61 66 64
3430.0 58 36 41 43 42 32 19 42 80 101
3470.0 71 34 45 44 36 32 26 29 48 67
3510.0 63 83 69 38 49 46 52 61 44 41
3550.0 38 41 45 33 50 69 74 50 44 62
3590.0 37 34 55 59 43 41 39 21 31 28
3630.0 17 0 11 49 35 23 26 10 48 49
3670.0 14 44 63 26 16 43 50 57 59 74
3710.0 53 23 28 35 47 51 56 63 43 64
3750.0 83 76 98 73 51 74 57 51 87 99
3790.0 105 104 97 91 79 79 65 81 101 77
3830.0 72 104 105 93 64
##END=
