##TITLE=Cyanoacetylene
##JCAMP-DX=4.24
##DATA TYPE=INFRARED SPECTRUM
##ORIGIN=NIST Mass Spectrometry Data Center
##OWNER=NIST Standard Reference Data Program
Collection (C) 2009 copyright by the U.S. Secretary of Commerce
on behalf of the United States of America. All rights reserved.
##CAS REGISTRY NO=1070-71-9
##MOLFORM=C 3 H N
##$NIST SOURCE=MSDC-IR
##SPECTROMETER/DATA SYSTEM=HP-GC/MS/IRD
##STATE=gas
##XUNITS=1/CM
##YUNITS=ABSORBANCE
##XFACTOR=1.0
##YFACTOR=0.000009100
##DELTAX=4.0
##FIRSTX=550.0
##LASTX=3846.0
##FIRSTY=0.001010
##MAXX=3846
##MINX=550
##MAXY=0.091
##MINY=0
##NPOINTS=825
##XYDATA=(X++(Y..Y))
550.0 111 123 105 103 101 104 98 89 97 93
590.0 97 92 103 106 123 126 173 217 319 452
630.0 653 981 1484 1979 2783 4084 4193 4551 8918 10000
670.0 7129 5435 4213 3252 2367 1662 1120 835 669 603
710.0 505 411 328 342 377 385 344 302 255 207
750.0 159 124 92 72 63 49 38 45 42 39
790.0 49 50 46 33 29 26 26 25 24 23
830.0 26 23 21 23 25 32 34 35 42 45
870.0 47 50 42 33 33 34 33 30 39 45
910.0 35 28 20 16 19 20 23 20 16 24
950.0 15 15 18 7 5 7 8 17 18 17
990.0 26 29 27 31 32 37 38 37 53 56
1030.0 54 54 44 54 58 43 30 43 57 49
1070.0 38 45 54 49 38 35 38 37 36 46
1110.0 50 44 42 46 40 33 48 53 36 42
1150.0 48 48 49 50 51 50 48 52 53 55
1190.0 58 59 61 61 62 60 59 63 62 56
1230.0 53 55 55 55 60 62 61 64 82 111
1270.0 164 255 405 622 909 1227 1501 1652 1642 1530
1310.0 1411 1390 1518 1607 1491 1214 876 572 346 198
1350.0 116 70 49 39 32 27 21 20 18 20
1390.0 21 15 15 16 16 15 13 10 10 12
1430.0 11 4 6 7 5 7 3 0 2 4
1470.0 0 0 3 5 3 2 4 6 5 4
1510.0 6 6 8 11 13 17 22 28 22 13
1550.0 8 10 13 11 12 15 12 9 8 9
1590.0 13 12 6 5 8 9 7 6 7 9
1630.0 8 9 15 17 12 11 12 15 13 12
1670.0 15 17 15 11 16 20 15 9 12 13
1710.0 16 17 12 16 18 15 12 17 13 12
1750.0 15 13 16 16 16 13 15 15 12 13
1790.0 11 13 11 13 19 19 15 16 13 12
1830.0 15 17 19 17 17 19 20 18 13 12
1870.0 13 12 10 13 13 16 17 13 15 11
1910.0 8 9 11 11 11 12 12 11 11 12
1950.0 13 12 15 15 13 17 16 15 19 22
1990.0 19 17 15 19 21 18 18 21 28 37
2030.0 45 54 66 80 93 109 127 133 132 128
2070.0 121 125 138 147 134 105 73 46 29 21
2110.0 15 12 13 13 12 12 11 11 9 10
2150.0 8 4 8 10 9 10 11 7 11 18
2190.0 19 21 24 27 32 39 52 70 93 134
2230.0 191 261 341 431 512 569 596 597 576 568
2270.0 596 636 626 526 372 217 105 53 32 29
2310.0 28 28 30 30 30 31 31 27 28 30
2350.0 29 27 33 38 37 32 26 21 17 13
2390.0 10 10 10 12 15 18 20 16 10 9
2430.0 13 18 19 18 16 18 20 23 30 37
2470.0 44 51 56 56 55 53 45 35 33 24
2510.0 16 16 16 20 18 15 17 16 17 21
2550.0 22 29 32 27 31 34 27 23 23 24
2590.0 25 26 21 19 23 24 26 30 29 29
2630.0 38 47 46 48 52 61 71 98 101 57
2670.0 38 37 32 28 23 13 17 20 19 20
2710.0 20 16 21 28 31 33 32 32 33 33
2750.0 36 38 39 39 33 31 29 23 16 11
2790.0 11 7 5 8 10 16 21 18 15 18
2830.0 13 9 9 7 6 6 9 7 5 5
2870.0 8 15 13 7 11 19 17 9 12 9
2910.0 11 13 7 6 8 12 13 15 13 11
2950.0 10 5 5 11 7 0 4 15 12 9
2990.0 5 5 10 12 19 12 12 18 20 19
3030.0 16 12 13 27 34 27 23 31 31 23
3070.0 23 31 45 46 43 44 50 71 76 52
3110.0 44 52 51 42 32 32 40 38 36 39
3150.0 32 29 32 30 22 15 17 18 20 22
3190.0 21 21 25 25 26 31 25 27 37 43
3230.0 47 60 81 100 118 157 203 260 325 410
3270.0 529 673 835 1030 1310 1710 2152 2549 2933 3503
3310.0 4303 4759 4353 3281 2701 3346 4064 3940 3151 2111
3350.0 1233 660 359 229 170 140 134 123 109 114
3390.0 104 77 57 48 37 28 27 27 28 31
3430.0 21 15 17 23 28 24 21 21 23 22
3470.0 24 31 36 32 25 24 29 25 22 30
3510.0 36 43 45 53 59 60 60 64 75 83
3550.0 62 44 39 37 34 22 26 33 36 38
3590.0 37 32 28 34 36 23 13 13 17 19
3630.0 15 21 25 24 20 20 22 21 18 26
3670.0 25 9 7 22 24 18 16 17 13 17
3710.0 27 24 23 21 21 28 30 23 19 18
3750.0 25 24 20 12 20 25 22 21 18 16
3790.0 15 18 23 21 10 9 11 11 8 8
3830.0 18 20 25 30 28
##END=
