##TITLE=2-Methylbutyraldehyde
##JCAMP-DX=4.24
##DATA TYPE=INFRARED SPECTRUM
##ORIGIN=NIST Mass Spectrometry Data Center
##OWNER=NIST Standard Reference Data Program
Collection (C) 2009 copyright by the U.S. Secretary of Commerce
on behalf of the United States of America. All rights reserved.
##CAS REGISTRY NO=96-17-3
##MOLFORM=C 5 H 10 O
##$NIST SOURCE=MSDC-IR
##SPECTROMETER/DATA SYSTEM=HP-GC/MS/IRD
##STATE=gas
##XUNITS=1/CM
##YUNITS=ABSORBANCE
##XFACTOR=1.0
##YFACTOR=0.000002900
##DELTAX=4.0
##FIRSTX=550.0
##LASTX=3846.0
##FIRSTY=0.000212
##MAXX=3846
##MINX=550
##MAXY=0.029
##MINY=0
##NPOINTS=825
##XYDATA=(X++(Y..Y))
550.0 73 81 67 60 43 36 58 45 20 3
590.0 4 39 58 34 27 49 58 83 104 102
630.0 120 138 138 133 130 122 110 111 106 100
670.0 82 61 77 84 71 69 56 53 63 59
710.0 79 76 72 89 89 108 138 164 214 265
750.0 326 411 501 595 667 717 743 724 684 631
790.0 551 471 400 319 270 222 183 171 155 140
830.0 131 133 139 124 122 148 173 197 230 267
870.0 335 427 536 665 792 896 1006 1092 1137 1149
910.0 1085 995 897 790 695 587 483 399 341 310
950.0 310 353 400 416 442 460 463 469 485 488
990.0 454 434 429 417 419 413 393 373 343 322
1030.0 282 225 201 203 196 160 157 170 146 125
1070.0 147 154 124 117 129 147 175 210 220 238
1110.0 266 271 261 270 310 348 381 399 406 444
1150.0 474 475 463 441 415 386 370 339 297 267
1190.0 249 215 193 209 211 203 213 220 232 253
1230.0 252 232 230 240 241 230 229 241 250 250
1270.0 249 243 238 243 241 231 224 218 216 217
1310.0 225 245 266 284 309 336 365 389 401 419
1350.0 432 452 490 558 630 700 790 874 954 1025
1390.0 1037 991 921 834 734 633 551 500 476 486
1430.0 534 626 753 908 1086 1265 1412 1525 1581 1552
1470.0 1444 1293 1128 949 769 600 458 353 273 228
1510.0 188 158 148 136 124 116 113 115 114 108
1550.0 103 108 117 106 96 97 103 96 90 92
1590.0 93 96 102 103 108 111 119 126 135 154
1630.0 170 194 217 244 283 321 362 400 442 502
1670.0 563 619 677 753 833 915 1025 1179 1386 1684
1710.0 2159 2882 3927 5292 6819 8204 9184 9770 10000 9926
1750.0 9493 8308 6405 4524 3182 2352 1850 1533 1326 1175
1790.0 1059 957 863 765 675 590 509 430 367 315
1830.0 270 235 205 189 170 147 132 119 106 103
1870.0 99 92 86 78 76 77 71 65 65 59
1910.0 58 58 58 57 51 46 41 34 35 33
1950.0 35 33 23 20 23 21 18 19 25 33
1990.0 35 29 22 30 35 29 34 36 29 28
2030.0 35 33 32 31 36 40 35 39 38 30
2070.0 28 27 24 26 29 28 25 25 28 31
2110.0 32 28 22 18 16 15 22 22 14 12
2150.0 15 18 18 17 18 15 6 5 11 6
2190.0 3 12 17 17 14 12 12 5 10 18
2230.0 12 7 11 16 15 13 11 4 4 8
2270.0 8 5 3 4 9 4 3 14 24 24
2310.0 22 24 22 25 29 21 19 20 16 19
2350.0 21 32 41 39 35 29 29 33 32 27
2390.0 27 27 20 18 18 17 18 19 19 15
2430.0 17 28 26 19 23 19 13 15 13 10
2470.0 8 8 7 10 12 7 7 9 12 16
2510.0 19 22 28 25 23 34 36 39 36 30
2550.0 36 37 43 61 69 76 83 98 107 109
2590.0 130 150 170 199 225 251 287 333 383 427
2630.0 469 522 579 639 702 767 863 991 1133 1309
2670.0 1526 1793 2115 2433 2696 2916 3091 3218 3247 3183
2710.0 3066 2879 2649 2422 2208 2021 1877 1759 1662 1593
2750.0 1547 1518 1488 1478 1485 1495 1529 1590 1680 1790
2790.0 1911 1995 2028 2033 2027 1997 1920 1810 1678 1554
2830.0 1457 1389 1373 1410 1512 1665 1856 2078 2343 2644
2870.0 2986 3330 3586 3685 3694 3680 3616 3530 3428 3355
2910.0 3348 3442 3657 3959 4335 4727 5019 5155 5236 5352
2950.0 5479 5653 5958 6397 6984 7583 7632 7208 6706 6046
2990.0 5164 4132 3110 2234 1591 1161 887 709 602 527
3030.0 475 442 406 388 372 363 362 347 340 335
3070.0 324 303 287 275 272 263 247 248 244 227
3110.0 210 213 207 201 198 182 173 173 171 159
3150.0 159 156 139 142 149 142 140 131 124 111
3190.0 101 106 104 82 62 52 38 36 36 32
3230.0 26 20 22 20 8 16 23 10 3 9
3270.0 5 3 17 28 31 27 12 4 9 10
3310.0 17 20 13 10 14 27 27 10 9 21
3350.0 15 20 20 7 13 29 32 24 28 35
3390.0 36 41 55 61 63 64 60 61 71 89
3430.0 97 116 135 146 169 192 214 229 229 223
3470.0 228 216 186 162 138 116 99 84 74 69
3510.0 78 71 53 51 41 24 26 32 34 36
3550.0 43 39 24 16 26 27 10 8 0 5
3590.0 29 35 29 27 21 14 25 42 27 17
3630.0 33 28 28 43 32 33 38 22 24 29
3670.0 34 32 23 20 27 34 39 43 15 0
3710.0 18 32 38 34 19 29 33 25 25 13
3750.0 34 45 27 29 32 23 16 14 21 25
3790.0 23 22 21 34 32 26 42 43 29 30
3830.0 28 28 33 32 19
##END=
