##TITLE=1-Chloro-2-methyl-1-propene
##JCAMP-DX=4.24
##DATA TYPE=INFRARED SPECTRUM
##ORIGIN=NIST Mass Spectrometry Data Center
##OWNER=NIST Standard Reference Data Program
Collection (C) 2009 copyright by the U.S. Secretary of Commerce
on behalf of the United States of America. All rights reserved.
##CAS REGISTRY NO=513-37-1
##MOLFORM=C 4 H 7 Cl
##$NIST SOURCE=MSDC-IR
##SPECTROMETER/DATA SYSTEM=HP-GC/MS/IRD
##STATE=gas
##XUNITS=1/CM
##YUNITS=ABSORBANCE
##XFACTOR=1.0
##YFACTOR=0.000004500
##DELTAX=4.0
##FIRSTX=550.0
##LASTX=3846.0
##FIRSTY=0.000239
##MAXX=3846
##MINX=550
##MAXY=0.045
##MINY=0
##NPOINTS=825
##XYDATA=(X++(Y..Y))
550.0 53 61 80 66 52 57 48 46 44 31
590.0 11 14 37 45 53 53 49 59 65 61
630.0 63 78 88 102 133 146 150 162 172 169
670.0 165 159 137 120 109 92 86 91 110 126
710.0 133 145 178 216 276 363 502 717 1019 1526
750.0 2343 3484 4875 6159 6947 7393 7684 8620 10000 8713
790.0 5946 4396 3606 3049 2543 2088 1725 1516 1461 1613
830.0 2012 2739 3890 5389 6778 7519 7712 7794 7710 7369
870.0 6027 3770 2007 1166 836 683 604 571 579 552
910.0 499 459 426 401 376 365 353 343 348 368
950.0 392 423 463 482 501 522 542 574 596 604
990.0 601 617 632 631 643 647 672 702 729 808
1030.0 933 1120 1410 1799 2251 2689 3016 3181 3225 3181
1070.0 3021 2706 2239 1767 1413 1140 927 778 647 527
1110.0 429 363 304 269 248 222 227 250 268 319
1150.0 394 490 654 890 1197 1492 1650 1691 1719 1781
1190.0 1810 1649 1285 935 718 617 561 514 492 469
1230.0 463 460 456 465 494 517 515 540 553 562
1270.0 605 650 740 924 1262 1801 2467 3021 3246 3321
1310.0 3323 3283 3165 2618 1852 1292 1015 912 900 933
1350.0 1008 1130 1301 1523 1772 1976 2052 2069 2201 2377
1390.0 2351 2154 1927 1717 1562 1483 1478 1553 1693 1870
1430.0 2056 2237 2433 2659 2849 2848 2661 2519 2471 2351
1470.0 2127 1867 1622 1410 1231 1086 978 906 863 836
1510.0 816 814 824 832 847 873 914 983 1086 1207
1550.0 1322 1382 1356 1296 1255 1199 1090 934 773 652
1590.0 584 549 543 554 590 648 737 874 1063 1305
1630.0 1601 1898 2119 2219 2217 2148 2016 1777 1386 940
1670.0 595 398 302 252 226 216 224 240 253 259
1710.0 263 268 258 251 244 213 174 140 119 104
1750.0 95 98 102 95 92 90 85 79 77 71
1790.0 66 66 67 73 73 71 76 85 87 89
1830.0 88 84 77 73 74 72 69 67 68 69
1870.0 66 65 60 48 42 42 38 36 37 38
1910.0 40 40 42 43 46 52 60 63 61 63
1950.0 67 65 59 52 49 45 38 35 32 25
1990.0 25 27 25 18 14 14 12 7 11 14
2030.0 8 7 9 7 9 10 6 5 3 0
2070.0 3 5 1 0 4 9 6 5 4 8
2110.0 10 7 8 15 24 34 45 52 59 63
2150.0 67 72 78 77 74 67 52 42 33 25
2190.0 18 12 15 18 16 15 14 18 24 28
2230.0 24 23 29 32 30 29 27 21 14 12
2270.0 12 11 11 15 20 23 24 24 22 22
2310.0 24 21 18 20 22 24 28 34 35 40
2350.0 44 37 30 31 34 35 39 38 33 32
2390.0 36 44 45 46 51 52 55 52 47 47
2430.0 50 51 51 50 48 46 46 49 48 44
2470.0 41 42 44 42 40 46 49 46 47 46
2510.0 44 44 51 50 49 53 51 49 47 49
2550.0 54 59 58 58 62 63 61 54 45 37
2590.0 37 38 36 35 35 38 36 36 39 42
2630.0 42 34 28 28 25 32 39 38 38 42
2670.0 56 68 72 75 81 97 114 121 129 143
2710.0 162 194 233 282 347 418 473 506 524 540
2750.0 550 526 449 377 337 310 305 319 324 331
2790.0 356 389 424 466 510 565 634 699 763 851
2830.0 961 1094 1271 1501 1798 2175 2620 3052 3409 3716
2870.0 3992 4215 4383 4483 4557 4632 4732 4919 5265 5856
2910.0 6754 7880 8821 9253 9525 9764 9892 9743 9088 8557
2950.0 7957 6973 6435 6392 6446 6318 5813 5238 5055 5085
2990.0 4817 4257 3699 3244 2914 2687 2511 2356 2228 2129
3030.0 2052 1979 1905 1847 1795 1776 1822 1947 2168 2476
3070.0 2733 2772 2707 2631 2599 2479 2062 1573 1211 984
3110.0 837 731 653 580 504 450 400 349 312 269
3150.0 230 211 195 177 159 140 130 126 118 127
3190.0 133 129 116 105 102 98 96 92 84 74
3230.0 70 72 64 65 72 72 77 80 77 67
3270.0 52 50 59 76 84 72 56 52 60 60
3310.0 59 62 56 62 70 68 62 73 66 60
3350.0 65 61 57 55 56 60 62 57 56 54
3390.0 58 60 51 38 35 47 38 25 30 30
3430.0 24 24 31 36 36 43 53 46 33 34
3470.0 44 42 33 34 33 21 17 16 23 34
3510.0 24 22 31 21 17 22 21 29 30 20
3550.0 19 20 14 17 24 24 19 23 25 25
3590.0 32 38 31 19 19 16 25 30 15 10
3630.0 14 23 44 44 38 32 24 36 30 21
3670.0 25 16 27 45 42 30 23 23 41 43
3710.0 30 28 35 46 46 27 16 25 39 28
3750.0 24 40 34 28 38 39 38 48 56 52
3790.0 43 45 52 47 51 63 55 60 86 93
3830.0 100 114 115 119 128
##END=
