##TITLE=4-Chloro-1-butanol
##JCAMP-DX=4.24
##DATA TYPE=INFRARED SPECTRUM
##ORIGIN=NIST Mass Spectrometry Data Center
##OWNER=NIST Standard Reference Data Program
Collection (C) 2009 copyright by the U.S. Secretary of Commerce
on behalf of the United States of America. All rights reserved.
##CAS REGISTRY NO=928-51-8
##MOLFORM=C 4 H 9 Cl O
##$NIST SOURCE=MSDC-IR
##SPECTROMETER/DATA SYSTEM=HP-GC/MS/IRD
##STATE=gas
##XUNITS=1/CM
##YUNITS=ABSORBANCE
##XFACTOR=1.0
##YFACTOR=0.000000700
##DELTAX=4.0
##FIRSTX=550.0
##LASTX=3846.0
##FIRSTY=0.000275
##MAXX=3846
##MINX=550
##MAXY=0.007
##MINY=0
##NPOINTS=825
##XYDATA=(X++(Y..Y))
550.0 393 245 82 27 0 40 81 67 80 126
590.0 131 178 92 45 80 72 166 162 159 281
630.0 350 479 621 771 1027 1265 1517 1612 1618 1601
670.0 1389 1128 855 601 438 330 294 322 307 373
710.0 505 634 813 1017 1182 1317 1474 1542 1553 1573
750.0 1425 1281 1204 1065 916 806 661 518 522 522
790.0 482 426 394 408 394 398 403 447 633 619
830.0 495 488 416 325 324 405 448 481 569 667
870.0 748 819 951 1078 1175 1316 1497 1617 1714 1820
910.0 1897 1946 1936 1908 1823 1711 1683 1595 1569 1608
950.0 1600 1682 1788 1802 1770 1739 1732 1787 1819 1863
990.0 1944 2078 2242 2409 2620 2931 3325 3786 4375 4879
1030.0 5300 5720 6127 6542 6852 7092 7285 7375 7248 6841
1070.0 6343 5777 5124 4519 3904 3403 3049 2693 2280 1914
1110.0 1633 1441 1279 1152 1119 1071 1056 1068 1073 1065
1150.0 1066 1074 1047 998 1030 1080 1100 1142 1247 1329
1190.0 1333 1332 1324 1339 1375 1396 1415 1479 1538 1544
1230.0 1558 1566 1665 1663 1632 1717 1862 1977 2083 2250
1270.0 2434 2553 2662 2812 2961 3085 3143 3161 3105 2990
1310.0 2824 2608 2390 2203 1997 1785 1638 1557 1510 1494
1350.0 1481 1481 1482 1497 1528 1573 1618 1678 1733 1731
1390.0 1665 1593 1494 1367 1231 1112 1067 1081 1101 1183
1430.0 1337 1505 1689 1873 1983 1996 1962 1844 1646 1433
1470.0 1276 1175 1068 971 873 757 651 573 503 458
1510.0 424 401 385 354 328 309 293 294 297 270
1550.0 256 273 264 229 207 199 180 156 171 181
1590.0 142 143 151 132 119 127 139 118 75 60
1630.0 73 80 64 45 67 82 53 47 48 28
1670.0 20 15 24 24 35 33 31 29 27 30
1710.0 15 4 9 23 30 16 5 23 41 35
1750.0 51 54 47 47 49 47 62 69 38 55
1790.0 71 73 82 79 88 96 94 101 100 96
1830.0 94 81 80 76 70 72 79 106 101 76
1870.0 75 72 60 54 66 70 74 86 75 73
1910.0 72 47 62 76 71 86 90 113 110 85
1950.0 79 85 112 130 100 82 123 145 124 102
1990.0 95 107 120 122 115 121 134 138 127 99
2030.0 94 111 99 110 109 105 97 74 94 89
2070.0 96 119 124 125 106 86 76 96 95 78
2110.0 97 84 66 72 64 62 89 66 37 82
2150.0 91 86 83 46 41 57 70 66 80 82
2190.0 90 101 74 46 57 66 62 60 36 47
2230.0 60 56 61 50 63 72 75 68 59 57
2270.0 63 86 82 65 73 74 54 47 77 91
2310.0 52 62 109 85 52 88 108 100 109 111
2350.0 89 92 133 126 113 126 120 82 43 26
2390.0 31 53 51 52 81 85 90 64 72 88
2430.0 66 64 24 17 73 71 49 57 29 28
2470.0 62 68 39 9 5 27 73 66 43 58
2510.0 74 69 50 39 40 46 54 50 19 36
2550.0 32 13 32 16 27 42 16 39 68 59
2590.0 57 87 81 57 72 84 80 59 86 104
2630.0 94 101 101 136 137 149 142 101 135 196
2670.0 175 172 215 241 254 279 307 306 299 296
2710.0 317 344 350 327 360 417 403 374 412 467
2750.0 457 466 484 487 517 546 569 600 622 647
2790.0 694 753 846 906 932 971 1059 1165 1319 1488
2830.0 1639 1857 2165 2451 2766 3156 3512 3887 4327 4791
2870.0 5239 5702 6083 6316 6487 6615 6682 6723 6773 6871
2910.0 7036 7289 7587 7964 8379 8688 8986 9321 9673 9934
2950.0 10000 9914 9660 9183 8509 7862 7386 7199 6527 5247
2990.0 4433 4018 3666 3213 2808 2453 1993 1560 1237 1013
3030.0 796 659 564 481 437 384 317 271 247 219
3070.0 216 242 225 200 187 173 165 108 81 100
3110.0 94 51 52 123 134 101 48 9 23 55
3150.0 74 56 54 75 50 31 29 64 81 13
3190.0 25 87 89 117 114 68 90 136 121 57
3230.0 28 70 145 125 41 64 123 87 53 103
3270.0 119 65 61 75 74 114 146 99 93 85
3310.0 71 84 87 96 100 105 86 59 62 77
3350.0 43 79 113 111 160 128 77 108 129 160
3390.0 206 187 159 173 161 131 136 149 171 180
3430.0 194 148 151 253 224 172 230 216 168 230
3470.0 223 207 254 207 203 244 234 272 247 197
3510.0 214 237 238 213 205 211 251 278 241 225
3550.0 258 252 220 178 210 280 284 340 373 348
3590.0 357 385 357 367 445 426 456 521 574 611
3630.0 614 683 794 925 1081 1327 1574 1804 2037 2241
3670.0 2310 2205 2052 1827 1483 1118 860 728 638 564
3710.0 497 432 386 366 359 321 308 286 334 365
3750.0 308 324 341 284 243 281 312 316 295 275
3790.0 270 260 269 339 368 281 252 307 276 253
3830.0 311 308 326 373 309
##END=
