##TITLE=3-Iodopropanol
##JCAMP-DX=4.24
##DATA TYPE=INFRARED SPECTRUM
##ORIGIN=EPA-IR VAPOR PHASE LIBRARY
##OWNER=SRD/NIST
Collection (C) 2009 copyright by the U.S. Secretary of Commerce
on behalf of the United States of America. All rights reserved.
##CAS REGISTRY NO=627-32-7
##MOLFORM=C 3 H 7 I O
##$NIST SOURCE=MSDC-IR
##STATE=gas
##XUNITS=1/CM
##YUNITS=ABSORBANCE
##XFACTOR=1.
##YFACTOR=0.001
##DELTAX=1.92898
##FIRSTX=549.8
##LASTX=4000.7
##FIRSTY=0.9615
##MAXX=4000.7
##MINX=549.759
##MAXY=0.027229
##MINY=0
##NPOINTS=1790
##XYDATA=(X++(Y..Y))
549.759 0.9615 0.7039 0.6979 0.7768 0.6229 0.4838 0.441 0.31419 0.1886 0.2052
569.049 0.4342 0.5328 0.4676 0.4159 0.5244 0.7315 0.8487 0.9452 1.0568 1.2224
588.339 1.2537 1.2284 1.469 1.839 1.909 1.839 1.829 1.939 2.119 2.009
607.628 1.779 1.629 1.469 1.349 1.1127 0.8991 0.8373 0.7091 0.6015 0.6637
626.918 0.5081 0.3631 0.3945 0.4382 0.4632 0.4561 0.5275 0.4035 0.25638 0.277
646.208 0.32289 0.463 0.4697 0.376 0.3725 0.28264 0.35432 0.30862 0.1947 0.4357
665.498 0.5984 0.6212 0.5919 0.5025 0.5218 0.5117 0.5071 0.4761 0.5061 0.5955
684.787 0.6034 0.5908 0.4758 0.5067 0.5473 0.5433 0.5801 0.7438 0.7357 0.5935
704.077 0.715 0.7702 0.7259 0.7225 0.6396 0.4854 0.5631 0.6794 0.6507 0.4723
723.367 0.5141 0.7344 0.924 0.9989 1.0479 1.145 1.1338 1.329 1.569 1.599
742.657 1.729 1.979 2.079 2.039 2.049 2.049 1.989 1.829 1.689 1.679
761.947 1.599 1.479 1.409 1.359 1.1744 1.0133 0.9515 0.8821 0.9591 0.9874
781.236 0.8772 0.8587 0.7889 0.8908 1.1837 1.1593 0.9013 0.8924 1.0454 1.1091
800.526 1.1535 1.1365 1.2417 1.399 1.2006 0.8431 0.8093 1.0272 0.8856 0.8925
819.816 0.7761 0.5633 0.9709 0.6755 0.8964 1.299 1.1335 1.419 1.649 1.599
839.106 1.529 1.639 1.779 2.049 2.329 2.419 2.309 2.249 2.459 2.589
858.395 2.819 3.119 3.339 3.549 3.509 3.499 3.609 3.639 3.599 3.779
877.685 3.889 3.779 3.689 3.669 3.709 3.669 3.469 3.239 2.979 2.839
896.975 2.769 2.639 2.579 2.539 2.299 2.019 1.939 1.879 1.779 1.609
916.265 1.549 1.449 1.489 1.589 1.559 1.589 1.609 1.539 1.539 1.589
935.555 1.609 1.679 1.729 1.839 2.029 2.089 1.879 2.029 2.249 2.309
954.844 2.449 2.539 2.669 2.809 2.919 2.879 2.949 3.159 3.439 3.669
974.134 3.839 3.899 4.019 4.379 4.569 4.689 4.919 5.219 5.559 5.889
993.424 6.109 6.409 6.959 7.439 7.909 8.549 9.159 9.779 10.319 11.049
1012.714 12.089 13.169 14.259 15.249 16.099 17.019 17.969 18.779 19.659 20.609
1032.003 21.659 22.689 23.429 24.059 24.769 25.359 26.169 26.719 26.889 27.169
1051.293 27.229 26.979 26.589 25.759 24.579 23.419 21.939 19.959 18.099 17.159
1070.583 16.249 14.749 13.249 12.429 11.509 10.079 9.639 9.149 8.019 7.449
1089.873 6.909 6.409 5.889 5.279 5.189 4.799 4.269 4.159 4.289 4.539
1109.163 4.339 4.189 4.199 3.959 3.909 4.129 4.229 4.189 4.219 4.149
1128.452 4.259 4.629 4.659 4.669 4.569 4.439 4.759 4.779 4.859 4.939
1147.742 4.939 5.299 5.339 5.689 6.259 6.549 6.999 7.459 7.769 8.369
1167.032 9.049 9.629 10.249 10.759 11.109 10.989 10.889 11.019 10.899 10.609
1186.322 10.339 9.889 9.499 9.359 9.349 9.579 9.509 9.759 10.299 10.709
1205.611 11.199 11.739 12.489 13.239 14.069 14.629 15.129 15.609 15.789 15.489
1224.901 15.279 15.219 14.959 14.479 13.639 12.779 12.009 11.289 10.499 9.779
1244.191 9.419 8.989 8.469 8.109 7.559 7.259 7.139 6.969 6.819 6.709
1263.481 6.539 6.359 6.359 6.279 6.129 6.279 6.479 6.509 6.629 6.619
1282.771 6.539 6.429 6.349 6.199 6.039 6.009 5.869 5.669 5.509 5.309
1302.060 5.119 4.989 4.809 4.639 4.519 4.419 4.319 4.179 4.039 3.989
1321.350 3.969 4.009 4.059 4.089 4.149 4.119 4.139 4.229 4.279 4.449
1340.640 4.649 4.779 4.899 5.009 5.049 4.999 5.009 5.029 4.969 4.959
1359.930 5.009 4.979 4.879 4.879 4.849 4.809 4.889 4.949 4.989 5.029
1379.219 5.069 5.119 5.189 5.119 5.009 4.909 4.789 4.649 4.479 4.369
1398.509 4.299 4.139 4.009 3.989 3.979 4.029 4.079 4.059 4.129 4.259
1417.799 4.349 4.449 4.569 4.749 4.969 5.119 5.289 5.309 5.219 5.199
1437.089 5.109 5.019 4.879 4.639 4.359 4.039 3.679 3.409 3.209 3.049
1456.378 2.929 2.819 2.799 2.779 2.849 2.949 2.989 3.029 3.019 2.949
1475.668 2.959 2.949 2.829 2.769 2.629 2.419 2.209 1.979 1.819 1.679
1494.958 1.519 1.459 1.349 1.2054 1.1133 1.0204 0.9709 0.8938 0.8718 0.929
1514.248 0.8058 0.7063 0.7131 0.6878 0.6692 0.6391 0.614 0.6175 0.6437 0.5921
1533.538 0.5218 0.5304 0.5435 0.5443 0.5104 0.4998 0.5188 0.5363 0.5514 0.4939
1552.827 0.4658 0.507 0.5339 0.4965 0.4291 0.3689 0.33417 0.361 0.3864 0.3918
1572.117 0.412 0.3878 0.3714 0.35442 0.31675 0.32315 0.32198 0.35118 0.3599 0.35223
1591.407 0.3802 0.3705 0.34105 0.3169 0.30149 0.29239 0.28122 0.26845 0.33791 0.36
1610.697 0.260409 0.2452 0.25644 0.28641 0.29875 0.33589 0.3895 0.30754 0.1954 0.1858
1629.986 0.27023 0.29266 0.262628 0.28751 0.31297 0.3484 0.34674 0.28848 0.263323 0.25651
1649.276 0.2194 0.1867 0.1764 0.179 0.2346 0.29778 0.3019 0.28437 0.27831 0.25033
1668.566 0.1847 0.103 0.093 0.1647 0.1998 0.2046 0.1655 0.157 0.2161 0.1675
1687.856 0.115 0.1902 0.2482 0.25606 0.2181 0.146 0.1816 0.1683 0.13 0.164
1707.146 0.151 0.111 0.141 0.155 0.1693 0.167 0.159 0.2076 0.2276 0.2192
1726.435 0.1709 0.146 0.198 0.2088 0.1677 0.2222 0.218 0.2106 0.1901 0.1884
1745.725 0.264442 0.2178 0.1865 0.2166 0.1937 0.1911 0.2355 0.25494 0.21 0.1773
1765.015 0.2131 0.2366 0.2402 0.2064 0.2209 0.2413 0.2309 0.2163 0.2222 0.2408
1784.305 0.1873 0.159 0.1882 0.27838 0.259196 0.15 0.1737 0.2268 0.29717 0.32037
1803.594 0.26931 0.2152 0.1815 0.1978 0.1897 0.1764 0.2029 0.2003 0.1689 0.1743
1822.884 0.2227 0.2449 0.2288 0.2198 0.2263 0.2187 0.1749 0.156 0.156 0.174
1842.174 0.149 0.105 0.088 0.104 0.1886 0.27617 0.31497 0.2803 0.267621 0.29464
1861.464 0.29783 0.27787 0.2415 0.27996 0.33207 0.34011 0.2871 0.27298 0.30714 0.25304
1880.754 0.2177 0.239 0.30529 0.34913 0.31561 0.28744 0.32701 0.3809 0.4104 0.4027
1900.043 0.4365 0.4531 0.4021 0.3926 0.4137 0.4516 0.4409 0.4292 0.4525 0.4173
1919.333 0.4021 0.4745 0.4929 0.4101 0.393 0.4175 0.3829 0.3863 0.3777 0.33773
1938.623 0.3832 0.368 0.32664 0.34287 0.31453 0.34518 0.3981 0.35071 0.29952 0.29133
1957.913 0.30925 0.31758 0.32203 0.32474 0.261641 0.28936 0.33213 0.29112 0.28079 0.29554
1977.202 0.28407 0.27476 0.28296 0.29001 0.28162 0.27984 0.31131 0.34111 0.35733 0.35625
1996.492 0.33973 0.32491 0.35249 0.35312 0.3716 0.34909 0.31316 0.2776 0.29238 0.3732
2015.782 0.3582 0.3794 0.4148 0.4413 0.458 0.4534 0.4711 0.4867 0.5053 0.5431
2035.072 0.5838 0.5771 0.5211 0.4773 0.4983 0.5518 0.5495 0.5388 0.5255 0.4509
2054.362 0.4795 0.5388 0.5304 0.5143 0.5516 0.5787 0.5084 0.4984 0.4846 0.4663
2073.651 0.445 0.4259 0.5124 0.5063 0.4521 0.487 0.5069 0.5344 0.5174 0.492
2092.941 0.5022 0.484 0.4867 0.5286 0.5304 0.4695 0.4258 0.423 0.4215 0.4111
2112.231 0.4148 0.4103 0.391 0.3927 0.421 0.4459 0.4043 0.3938 0.4264 0.377
2131.521 0.35054 0.35265 0.28851 0.25001 0.31694 0.3721 0.34454 0.3643 0.3715 0.3656
2150.810 0.4236 0.4262 0.4462 0.4844 0.4193 0.35683 0.35744 0.35888 0.34884 0.35254
2170.100 0.394 0.4225 0.4353 0.428 0.3722 0.3914 0.4044 0.34996 0.33968 0.3919
2189.390 0.448 0.4428 0.4541 0.4575 0.4622 0.4412 0.4606 0.5008 0.4484 0.4425
2208.680 0.4085 0.3855 0.4229 0.4053 0.4049 0.4157 0.3901 0.3758 0.3734 0.34874
2227.970 0.33149 0.33135 0.32704 0.35383 0.4139 0.4187 0.3869 0.3748 0.4145 0.401
2247.259 0.34321 0.3909 0.3955 0.34209 0.3252 0.35081 0.3868 0.3733 0.34219 0.4124
2266.549 0.4495 0.4233 0.4335 0.4133 0.4182 0.4339 0.4065 0.3966 0.3994 0.35836
2285.839 0.3941 0.4234 0.3898 0.4415 0.4577 0.4205 0.3929 0.3722 0.3687 0.427
2305.129 0.4466 0.4518 0.4476 0.3832 0.4114 0.4662 0.3926 0.3814 0.438 0.447
2324.418 0.4617 0.4368 0.4463 0.4483 0.4533 0.467 0.4801 0.4911 0.4811 0.5137
2343.708 0.4861 0.4004 0.31879 0.3854 0.4976 0.5335 0.544 0.497 0.4827 0.4451
2362.998 0.4238 0.4545 0.4798 0.4567 0.4364 0.4421 0.3963 0.4194 0.4576 0.4893
2382.288 0.5166 0.4794 0.4305 0.4203 0.4319 0.4017 0.3968 0.4097 0.4947 0.5413
2401.578 0.4672 0.4614 0.4327 0.3932 0.4993 0.543 0.4669 0.4361 0.4473 0.5119
2420.867 0.5555 0.481 0.4235 0.4816 0.5372 0.4688 0.4586 0.4655 0.4111 0.4392
2440.157 0.501 0.4898 0.4661 0.489 0.4638 0.4467 0.5022 0.5453 0.4695 0.34719
2459.447 0.386 0.4494 0.4151 0.3934 0.4325 0.4953 0.405 0.34691 0.3612 0.33721
2478.737 0.4285 0.4385 0.3715 0.35224 0.3868 0.4297 0.4093 0.4384 0.3987 0.3111
2498.026 0.3441 0.4017 0.3839 0.31322 0.33839 0.3895 0.3599 0.24961 0.2446 0.34027
2517.316 0.34376 0.29775 0.27814 0.29219 0.26628 0.3134 0.34385 0.3017 0.3844 0.4084
2536.606 0.3752 0.35846 0.32647 0.29976 0.3658 0.4511 0.41 0.4097 0.4248 0.386
2555.896 0.3754 0.4321 0.4717 0.483 0.4781 0.4505 0.4209 0.4037 0.3621 0.35631
2575.186 0.3977 0.3951 0.34439 0.3735 0.4212 0.381 0.4422 0.5364 0.4886 0.4844
2594.475 0.4736 0.4296 0.4501 0.4249 0.3973 0.47 0.5106 0.4983 0.4691 0.4447
2613.765 0.4274 0.4368 0.5119 0.5335 0.5287 0.5056 0.4521 0.4618 0.4853 0.4592
2633.055 0.51 0.5383 0.4884 0.4701 0.5153 0.5742 0.5324 0.4919 0.555 0.5712
2652.345 0.5381 0.5535 0.5449 0.5387 0.5187 0.5187 0.6064 0.6128 0.5555 0.4747
2671.634 0.5529 0.6205 0.6631 0.6878 0.6825 0.7056 0.6356 0.631 0.6859 0.7319
2690.924 0.7449 0.6885 0.6943 0.8025 0.7487 0.747 0.7755 0.6959 0.6766 0.7344
2710.214 0.7918 0.7942 0.8094 0.8618 0.9136 0.9528 0.9273 0.9154 0.9065 0.9068
2729.504 0.9595 0.9752 1.0231 1.0149 1.0526 1.1699 1.1718 1.1296 1.1034 1.187
2748.794 1.2584 1.259 1.2492 1.289 1.299 1.1641 1.1372 1.1936 1.2405 1.329
2768.083 1.399 1.479 1.519 1.519 1.529 1.489 1.509 1.539 1.529 1.479
2787.373 1.489 1.539 1.609 1.649 1.649 1.659 1.599 1.659 1.699 1.659
2806.663 1.719 1.789 1.739 1.799 1.969 2.049 2.159 2.389 2.489 2.449
2825.953 2.599 2.829 2.949 3.059 3.219 3.349 3.549 3.739 3.829 4.009
2845.242 4.249 4.499 4.759 5.019 5.279 5.539 5.769 6.019 6.339 6.669
2864.532 6.989 7.339 7.689 8.129 8.729 9.289 9.819 10.259 10.799 11.339
2883.822 11.699 12.089 12.389 12.609 12.889 13.049 13.029 12.879 12.799 12.729
2903.112 12.679 12.739 12.789 12.829 12.809 12.899 13.079 13.249 13.659 14.149
2922.401 14.519 14.959 15.509 16.049 16.589 17.109 17.479 17.709 17.799 17.829
2941.691 17.869 17.789 17.489 17.039 16.469 15.989 15.679 15.159 14.619 14.149
2960.981 13.649 13.299 12.739 12.219 11.799 11.179 10.639 10.229 9.719 9.069
2980.271 8.479 7.959 7.359 6.829 6.289 5.879 5.459 4.869 4.489 4.159
2999.561 3.829 3.579 3.309 3.069 2.829 2.629 2.469 2.309 2.319 2.359
3018.850 2.159 1.939 1.949 1.869 1.769 1.699 1.569 1.569 1.569 1.319
3038.140 1.1499 1.0678 1.0285 0.9781 0.8901 0.9302 0.9044 0.8408 0.8025 0.681
3057.430 0.6683 0.6515 0.5424 0.6185 0.64 0.5477 0.5717 0.6395 0.6144 0.5787
3076.720 0.5495 0.4872 0.421 0.2403 0.2038 0.24923 0.34061 0.4795 0.4244 0.396
3096.009 0.4081 0.31084 0.34418 0.35858 0.25996 0.2358 0.2303 0.27141 0.3951 0.4333
3115.299 0.33175 0.28015 0.32818 0.4185 0.31932 0.29543 0.4206 0.35651 0.3821 0.421
3134.589 0.31275 0.31644 0.3966 0.3216 0.27248 0.34446 0.33468 0.391 0.4236 0.29366
3153.879 0.179 0.1769 0.2242 0.1733 0.126 0.111 0.155 0.260056 0.33302 0.3606
3173.169 0.32453 0.32301 0.33625 0.31021 0.3774 0.4551 0.3711 0.30137 0.30116 0.265119
3192.458 0.25483 0.28388 0.1705 0.082 0.1774 0.1663 0.128 0.144 0.213 0.32587
3211.748 0.27724 0.1818 0.228 0.33775 0.29854 0.2576 0.28734 0.3833 0.395 0.30165
3231.038 0.125 0.058 0.17 0.2795 0.33467 0.25649 0.1945 0.1649 0.1888 0.161
3250.328 0.1794 0.2155 0.265292 0.34079 0.33083 0.3667 0.418 0.32247 0.158 0.097
3269.617 0.21 0.259732 0.1991 0.25707 0.1671 0.057 0.053 0.1596 0.29644 0.2126
3288.907 0.146 0.144 0.2214 0.29082 0.2262 0.146 0.083 0.115 0.1866 0.2032
3308.197 0.2148 0.28337 0.3606 0.3618 0.33538 0.3898 0.34349 0.30337 0.397 0.2288
3327.487 0.129 0.1731 0.30308 0.3926 0.27602 0.2489 0.34839 0.28886 0.125 0.29383
3346.777 0.3967 0.30052 0.28658 0.25568 0.3862 0.3983 0.2036 0.153 0.1861 0.27502
3366.066 0.2526 0.25472 0.27506 0.32458 0.30138 0.32953 0.4016 0.31128 0.1991 0.091
3385.356 0.2475 0.34445 0.29875 0.34375 0.27144 0.196 0.28957 0.30137 0.31065 0.3861
3404.646 0.35635 0.3992 0.35653 0.3815 0.35563 0.28563 0.4163 0.4511 0.3879 0.3795
3423.936 0.3601 0.36 0.4355 0.4641 0.4344 0.2099 0.2109 0.4211 0.3164 0.2486
3443.225 0.3924 0.4311 0.4357 0.4233 0.4321 0.4014 0.31821 0.3617 0.4364 0.4249
3462.515 0.30374 0.30237 0.4659 0.3955 0.2754 0.31605 0.3652 0.5077 0.4744 0.4373
3481.805 0.4175 0.416 0.5649 0.5753 0.4728 0.3808 0.4938 0.5499 0.5171 0.4467
3501.095 0.371 0.3673 0.4332 0.4583 0.4567 0.4126 0.33322 0.35521 0.375 0.3936
3520.385 0.35129 0.31487 0.2957 0.2437 0.217 0.362 0.4636 0.4526 0.4761 0.5444
3539.674 0.4583 0.3717 0.35868 0.30586 0.4031 0.504 0.4643 0.4351 0.33894 0.34068
3558.964 0.4303 0.4232 0.5105 0.5358 0.5071 0.575 0.6861 0.4818 0.4223 0.6196
3578.254 0.5777 0.5858 0.5655 0.5374 0.6613 0.688 0.6693 0.8402 0.906 0.9516
3597.544 1.0601 1.1393 1.2462 1.339 1.429 1.409 1.459 1.519 1.669 1.869
3616.833 2.049 2.119 1.979 1.919 1.899 1.879 1.919 1.909 1.859 1.959
3636.123 1.989 2.009 2.179 2.419 2.709 2.959 3.229 3.699 4.249 4.769
3655.413 5.349 5.939 6.439 6.849 7.279 7.649 7.899 7.969 8.019 7.819
3674.703 7.389 7.019 6.619 6.169 5.649 5.149 4.629 4.079 3.479 2.939
3693.993 2.649 2.349 2.149 1.949 1.789 1.709 1.509 1.329 1.1843 1.0892
3713.282 1.0247 0.9418 0.9497 1.0195 0.9931 0.8193 0.7053 0.7965 0.7963 0.7108
3732.572 0.7093 0.6577 0.6108 0.5601 0.5473 0.5369 0.5193 0.4898 0.4512 0.5563
3751.862 0.623 0.4824 0.4186 0.4418 0.4154 0.382 0.4195 0.5224 0.5317 0.5164
3771.152 0.4623 0.4696 0.5134 0.4569 0.411 0.4482 0.4757 0.4864 0.5026 0.415
3790.441 0.32984 0.34471 0.3647 0.4134 0.30124 0.2559 0.3857 0.4952 0.523 0.4256
3809.731 0.4043 0.5048 0.417 0.266445 0.30116 0.28787 0.34419 0.4018 0.3937 0.3804
3829.021 0.4178 0.4261 0.3633 0.35429 0.34 0.3719 0.5879 0.611 0.4796 0.5081
3848.311 0.4514 0.5318 0.5708 0.5706 0.5808 0.4364 0.4728 0.6007 0.5475 0.3759
3867.601 0.29782 0.4291 0.5385 0.5661 0.5019 0.30917 0.3966 0.4764 0.3809 0.35639
3886.890 0.4039 0.33691 0.32418 0.33243 0.27543 0.3634 0.4752 0.4443 0.417 0.4798
3906.180 0.4765 0.4528 0.4727 0.4408 0.4854 0.5738 0.4544 0.32908 0.31143 0.31649
3925.470 0.35782 0.30509 0.2405 0.27564 0.30557 0.4329 0.3867 0.1916 0.13 0.132
3944.760 0.1682 0.098 0.01 0.138 0.25459 0.135 0.098 0.2254 0.32411 0.31836
3964.049 0.25736 0.25649 0.1939 0.152 0.27706 0.30559 0.2989 0.32572 0.24978 0.159
3983.339 0.148 0.128 0.009 0 0.063 0.04 0.069 0.2045 0.2463 0.2233
##END=
