##TITLE=3-Methyl-1,2-butadiene
##JCAMP-DX=4.24
##DATA TYPE=INFRARED SPECTRUM
##ORIGIN=NIST Mass Spectrometry Data Center
##OWNER=NIST Standard Reference Data Program
Collection (C) 2009 copyright by the U.S. Secretary of Commerce
on behalf of the United States of America. All rights reserved.
##CAS REGISTRY NO=598-25-4
##MOLFORM=C 5 H 8
##$NIST SOURCE=MSDC-IR
##SPECTROMETER/DATA SYSTEM=HP-GC/MS/IRD
##STATE=gas
##XUNITS=1/CM
##YUNITS=ABSORBANCE
##XFACTOR=1.0
##YFACTOR=0.000001600
##DELTAX=4.0
##FIRSTX=550.0
##LASTX=3846.0
##FIRSTY=0.000874
##MAXX=3846
##MINX=550
##MAXY=0.016
##MINY=0
##NPOINTS=825
##XYDATA=(X++(Y..Y))
550.0 546 570 755 1068 1431 1820 2189 2267 1995 1834
590.0 2001 2188 2128 1778 1361 1033 730 528 370 285
630.0 186 71 61 131 178 148 128 129 136 175
670.0 205 195 206 265 260 231 214 170 184 200
710.0 135 72 70 59 44 67 74 112 188 210
750.0 265 337 336 299 306 336 320 323 332 319
790.0 273 277 328 491 735 988 1356 1865 2553 3405
830.0 4389 5485 6519 7136 6822 6196 6648 7408 7139 6085
870.0 4819 3661 2678 1869 1291 885 600 439 343 263
910.0 228 210 178 165 157 134 127 119 115 139
950.0 164 189 184 203 236 278 375 494 624 746
990.0 822 865 944 1151 1218 1021 906 817 679 535
1030.0 444 405 365 272 205 203 161 117 106 86
1070.0 72 67 63 59 60 65 57 80 110 122
1110.0 106 114 141 169 220 226 215 255 307 366
1150.0 427 532 671 786 909 1059 1216 1329 1358 1352
1190.0 1353 1332 1310 1243 1106 934 784 675 621 572
1230.0 514 487 486 472 465 510 605 791 1066 1466
1270.0 1889 2127 2183 2342 2456 2267 2217 2196 1817 1274
1310.0 829 571 454 407 395 433 502 587 674 819
1350.0 1024 1211 1384 1456 1372 1384 1613 1719 1559 1385
1390.0 1336 1391 1453 1565 1729 1876 2007 2134 2277 2484
1430.0 2719 2966 3047 2864 2693 2655 2695 2821 2780 2427
1470.0 1993 1648 1412 1212 1013 839 681 544 441 376
1510.0 318 284 268 241 239 246 232 237 234 242
1550.0 267 249 228 253 271 270 254 257 279 287
1590.0 290 298 296 296 300 295 269 235 208 188
1630.0 173 162 136 129 144 123 114 143 155 168
1670.0 190 221 297 390 501 634 765 816 874 914
1710.0 844 881 874 740 610 486 347 236 180 144
1750.0 127 102 76 68 76 72 69 74 78 71
1790.0 64 63 55 47 47 52 49 24 30 53
1830.0 56 65 66 67 63 60 45 47 61 61
1870.0 61 66 74 96 111 121 136 157 186 232
1910.0 299 386 513 666 861 1116 1423 1774 2145 2499
1950.0 2794 3003 3083 3062 2969 2741 2372 1929 1410 881
1990.0 500 294 215 178 161 156 151 136 122 116
2030.0 106 111 114 108 111 116 113 111 114 109
2070.0 101 93 88 81 81 88 88 85 83 79
2110.0 73 85 92 71 67 70 70 64 73 82
2150.0 91 88 81 90 93 85 77 63 50 61
2190.0 86 83 64 78 83 66 61 64 65 70
2230.0 62 51 64 68 66 68 55 52 45 49
2270.0 66 72 82 69 55 64 74 75 88 96
2310.0 84 88 103 106 101 90 97 101 106 119
2350.0 123 123 118 126 139 131 118 109 93 98
2390.0 114 102 92 99 97 104 130 137 143 137
2430.0 123 126 122 113 119 121 110 94 99 105
2470.0 102 93 86 90 75 70 88 90 90 107
2510.0 112 96 83 102 102 94 122 140 129 125
2550.0 119 125 136 121 122 127 134 132 116 103
2590.0 106 114 112 102 83 80 90 97 99 99
2630.0 103 110 121 135 152 173 179 181 181 201
2670.0 211 201 206 225 226 222 236 283 326 380
2710.0 425 434 458 477 470 474 504 496 441 372
2750.0 330 322 313 313 324 362 369 351 373 402
2790.0 452 507 553 606 686 771 827 869 921 1006
2830.0 1152 1340 1568 1896 2323 2866 3472 4064 4626 5107
2870.0 5414 5703 6012 6165 6237 6326 6455 6636 6923 7392
2910.0 7993 8647 9209 9628 9864 9846 9843 9783 9876 10000
2950.0 8653 6819 6001 5703 5696 5955 6417 6852 6976 6751
2990.0 6489 6366 6538 6221 5433 4691 3693 2732 2059 1676
3030.0 1496 1452 1479 1538 1614 1677 1785 2076 2168 1820
3070.0 1595 1550 1500 1428 1336 1222 1094 972 878 783
3110.0 719 678 604 523 489 457 436 410 355 321
3150.0 308 281 280 280 244 222 183 130 142 166
3190.0 168 164 176 170 152 168 154 165 164 152
3230.0 192 228 233 229 204 190 192 174 145 116
3270.0 130 117 118 155 126 115 116 83 80 90
3310.0 109 127 96 95 132 140 131 130 137 135
3350.0 113 103 97 62 38 60 78 62 69 75
3390.0 69 95 95 64 59 76 70 57 69 60
3430.0 86 92 58 56 83 70 41 51 53 79
3470.0 80 44 43 53 47 35 66 106 81 67
3510.0 67 73 76 83 83 81 89 76 76 68
3550.0 66 43 44 66 63 60 45 37 58 68
3590.0 54 42 17 13 51 67 45 20 24 31
3630.0 27 58 63 34 71 113 78 52 41 47
3670.0 89 107 84 72 54 17 0 44 89 59
3710.0 28 50 88 109 62 12 6 19 44 39
3750.0 11 56 99 69 40 53 71 62 62 56
3790.0 39 35 41 89 89 70 106 85 48 61
3830.0 77 109 140 136 104
##END=
