##TITLE=1-Methylcyclopentene
##JCAMP-DX=4.24
##DATA TYPE=INFRARED SPECTRUM
##ORIGIN=NIST Mass Spectrometry Data Center
##OWNER=NIST Standard Reference Data Program
Collection (C) 2009 copyright by the U.S. Secretary of Commerce
on behalf of the United States of America. All rights reserved.
##CAS REGISTRY NO=693-89-0
##MOLFORM=C 6 H 10
##$NIST SOURCE=MSDC-IR
##SPECTROMETER/DATA SYSTEM=HP-GC/MS/IRD
##STATE=gas
##XUNITS=1/CM
##YUNITS=ABSORBANCE
##XFACTOR=1.0
##YFACTOR=0.000004100
##DELTAX=4.0
##FIRSTX=550.0
##LASTX=3846.0
##FIRSTY=0.000508
##MAXX=3846
##MINX=550
##MAXY=0.041
##MINY=0
##NPOINTS=825
##XYDATA=(X++(Y..Y))
550.0 124 61 8 31 53 48 52 61 36 1
590.0 13 39 31 38 43 34 27 31 52 65
630.0 77 95 90 75 96 103 80 67 72 86
670.0 75 63 58 47 50 63 74 67 40 33
710.0 58 68 70 66 67 78 89 104 125 160
750.0 199 238 279 353 449 542 638 751 887 1072
790.0 1167 1141 1098 1024 957 912 847 714 568 476
830.0 408 352 297 244 199 167 165 166 156 155
870.0 166 185 212 235 228 218 217 223 235 249
910.0 259 262 276 265 228 216 226 221 196 163
950.0 138 123 113 117 136 168 210 260 323 409
990.0 524 680 829 857 816 817 818 756 655 564
1030.0 485 401 322 270 235 211 195 197 208 190
1070.0 152 134 119 100 91 84 70 58 64 66
1110.0 62 80 96 96 101 108 117 122 125 134
1150.0 136 137 143 141 142 137 130 136 149 168
1190.0 185 189 202 227 255 280 272 265 267 251
1230.0 241 242 234 221 217 216 220 228 241 258
1270.0 282 299 314 324 334 344 330 327 342 353
1310.0 357 362 374 376 364 371 366 345 334 313
1350.0 263 209 190 209 245 282 295 316 361 353
1390.0 367 392 341 275 252 277 327 390 477 581
1430.0 700 828 935 1018 1072 1072 1032 997 971 898
1470.0 782 666 560 467 386 315 247 195 167 148
1510.0 126 113 109 104 101 100 103 108 109 117
1550.0 130 142 149 153 162 173 182 195 203 206
1590.0 210 210 204 201 196 186 174 165 166 167
1630.0 175 189 214 244 257 257 258 253 243 235
1670.0 213 173 135 101 75 65 60 47 35 33
1710.0 37 42 32 21 22 20 19 19 19 20
1750.0 20 21 27 33 35 33 36 45 50 47
1790.0 45 44 47 47 44 40 43 46 42 36
1830.0 34 31 30 37 43 46 45 42 43 47
1870.0 47 42 34 32 36 36 30 26 28 27
1910.0 24 19 19 21 18 21 24 23 22 20
1950.0 16 19 19 16 14 10 9 10 7 7
1990.0 11 13 10 17 19 14 13 10 9 6
2030.0 2 4 6 7 4 3 8 10 4 3
2070.0 5 2 0 3 6 3 3 4 2 6
2110.0 9 7 12 9 7 7 12 17 11 11
2150.0 17 22 20 21 23 25 24 19 18 21
2190.0 18 15 14 14 12 16 17 14 19 17
2230.0 16 17 17 14 11 19 21 20 21 18
2270.0 14 14 19 20 19 20 20 23 26 28
2310.0 30 29 34 38 34 32 29 35 40 37
2350.0 39 38 31 26 29 28 20 22 23 17
2390.0 9 8 8 7 9 10 8 0 3 8
2430.0 10 16 19 15 13 21 23 22 21 18
2470.0 21 21 21 21 17 14 23 23 19 21
2510.0 18 18 16 25 28 25 24 25 31 37
2550.0 39 28 29 43 46 41 40 43 50 56
2590.0 49 44 50 42 31 27 30 36 35 34
2630.0 35 35 36 38 40 36 37 41 45 41
2670.0 40 42 47 52 57 65 71 85 101 112
2710.0 119 130 158 191 215 237 253 270 295 301
2750.0 314 332 313 285 280 293 307 329 359 389
2790.0 420 462 521 597 680 784 932 1128 1392 1736
2830.0 2194 2803 3540 4336 5067 5671 6242 6780 7094 7240
2870.0 7247 7099 6887 6677 6578 6607 6740 6989 7313 7592
2910.0 7909 8275 8574 8870 9102 9231 9477 9848 9865 9466
2950.0 9225 9464 10000 9476 8049 6855 5991 5395 4700 3837
2990.0 2997 2316 1816 1469 1254 1129 1073 1093 1183 1330
3030.0 1552 1802 1996 2037 1933 1885 1979 2013 1814 1474
3070.0 1149 902 724 593 504 434 380 344 317 285
3110.0 257 237 217 194 177 168 148 130 122 114
3150.0 103 87 79 75 67 67 65 62 60 56
3190.0 49 37 33 40 37 27 28 28 27 27
3230.0 26 22 20 30 35 30 25 25 27 26
3270.0 26 32 45 49 38 33 30 36 51 49
3310.0 37 40 46 29 27 37 34 27 27 31
3350.0 20 18 20 18 19 22 27 22 25 33
3390.0 23 14 6 0 4 3 7 11 8 13
3430.0 11 21 26 16 16 24 25 21 20 19
3470.0 23 18 21 35 36 33 28 17 24 43
3510.0 39 30 29 30 27 33 29 27 33 41
3550.0 43 28 31 40 38 39 40 27 29 39
3590.0 44 44 37 33 44 47 22 19 35 43
3630.0 46 47 51 48 42 31 29 44 47 46
3670.0 45 45 51 53 44 43 59 64 62 62
3710.0 56 47 41 56 62 60 66 62 52 39
3750.0 45 61 62 55 54 57 52 47 51 57
3790.0 58 54 55 57 57 61 67 61 63 61
3830.0 54 63 63 58 61
##END=
