##TITLE=1-Cyclopropyl ethanol
##JCAMP-DX=4.24
##DATA TYPE=INFRARED SPECTRUM
##ORIGIN=NIST Mass Spectrometry Data Center
##OWNER=NIST Standard Reference Data Program
Collection (C) 2009 copyright by the U.S. Secretary of Commerce
on behalf of the United States of America. All rights reserved.
##CAS REGISTRY NO=2566-44-1
##MOLFORM=C 5 H 10 O
##$NIST SOURCE=MSDC-IR
##SPECTROMETER/DATA SYSTEM=HP-GC/MS/IRD
##STATE=gas
##XUNITS=1/CM
##YUNITS=ABSORBANCE
##XFACTOR=1.0
##YFACTOR=0.000001000
##DELTAX=4.0
##FIRSTX=550.0
##LASTX=3846.0
##FIRSTY=0.000394
##MAXX=3846
##MINX=550
##MAXY=0.01
##MINY=0
##NPOINTS=825
##XYDATA=(X++(Y..Y))
550.0 394 295 355 398 320 280 238 219 282 325
590.0 345 235 183 270 222 186 225 286 293 227
630.0 160 133 195 185 171 212 206 104 26 0
670.0 56 148 72 91 220 197 147 177 192 196
710.0 209 216 253 282 287 277 241 240 301 306
750.0 266 246 263 302 313 279 231 202 256 334
790.0 380 474 635 836 973 1201 1429 1479 1449 1433
830.0 1402 1258 1140 1042 937 886 919 1024 1209 1411
870.0 1584 1794 1983 2106 2270 2471 2633 2689 2683 2774
910.0 2990 3238 3653 4292 4968 5499 5755 5835 5877 5831
950.0 5624 5064 4245 3559 3085 2795 2705 2691 2699 2792
990.0 3016 3351 3761 4290 4922 5512 6033 6646 7020 7150
1030.0 7374 7425 7204 6839 6573 6635 6694 6570 6524 6602
1070.0 6748 6959 7211 7445 7673 7838 7867 7757 7472 7022
1110.0 6493 5939 5377 4760 4163 3762 3458 3343 3274 3207
1150.0 3147 3070 2988 2881 2795 2676 2534 2439 2394 2389
1190.0 2382 2385 2349 2331 2379 2407 2457 2593 2831 3096
1230.0 3455 3902 4321 4674 4860 4930 4890 4760 4551 4129
1270.0 3628 3176 2859 2675 2577 2499 2458 2489 2529 2565
1310.0 2585 2589 2582 2581 2563 2527 2538 2553 2545 2566
1350.0 2657 2810 3052 3387 3751 4120 4432 4779 5103 5328
1390.0 5373 5228 4927 4493 4057 3622 3230 2950 2691 2464
1430.0 2284 2160 2182 2207 2221 2228 2082 1884 1735 1561
1470.0 1365 1160 965 816 666 521 446 381 320 274
1510.0 253 231 194 183 197 199 187 139 125 143
1550.0 144 124 108 121 108 108 129 139 122 99
1590.0 106 112 108 110 108 110 104 104 116 106
1630.0 103 100 93 97 104 91 74 96 84 61
1670.0 74 69 85 85 55 46 35 22 5 12
1710.0 10 6 21 12 18 56 63 41 38 52
1750.0 61 72 85 92 114 102 102 123 101 118
1790.0 128 113 124 116 122 153 171 166 160 159
1830.0 157 157 152 144 150 147 136 137 143 152
1870.0 137 126 148 160 170 178 194 223 232 243
1910.0 265 280 281 272 258 249 252 229 194 183
1950.0 167 154 150 123 109 109 101 95 87 82
1990.0 76 68 64 45 54 43 43 61 73 99
2030.0 119 155 186 202 230 239 230 229 246 254
2070.0 235 238 244 222 190 182 178 130 107 103
2110.0 96 100 86 71 72 90 83 64 51 36
2150.0 59 57 59 76 68 64 52 39 56 70
2190.0 56 55 66 60 53 66 70 61 52 50
2230.0 63 56 59 56 57 70 81 85 87 72
2270.0 51 50 39 27 31 19 16 37 35 27
2310.0 12 3 22 31 29 32 29 26 22 43
2350.0 28 23 46 41 46 48 32 34 56 57
2390.0 68 78 52 49 59 50 52 50 43 45
2430.0 57 83 92 53 61 79 78 97 110 112
2470.0 112 123 129 112 98 106 96 78 62 37
2510.0 38 48 54 53 44 28 5 14 28 20
2550.0 13 27 43 63 73 62 91 111 101 127
2590.0 162 162 162 166 174 184 196 206 210 211
2630.0 217 203 185 200 210 194 200 228 240 219
2670.0 202 204 202 196 188 182 164 158 167 163
2710.0 162 188 180 152 178 218 226 220 239 282
2750.0 295 309 331 330 322 368 404 396 405 459
2790.0 508 542 564 607 659 684 721 790 876 979
2830.0 1103 1267 1470 1719 2039 2374 2776 3212 3694 4173
2870.0 4562 4917 5196 5364 5467 5426 5247 4976 4685 4381
2910.0 4173 4038 3911 3810 3776 3743 3710 3737 3812 3990
2950.0 4303 4760 5391 6273 7369 8540 9556 10000 9884 9744
2990.0 9559 9295 9027 8696 8445 8231 7863 7344 6824 6126
3030.0 5173 4165 3263 2505 1959 1622 1473 1531 1793 2230
3070.0 2778 3376 3841 4345 5045 4769 3962 3621 3135 2467
3110.0 1828 1271 857 608 431 336 256 201 184 177
3150.0 163 143 174 181 148 140 148 140 134 171
3190.0 203 176 158 192 173 126 109 97 103 75
3230.0 41 35 53 66 21 21 62 28 10 52
3270.0 31 31 45 27 25 17 47 39 21 33
3310.0 46 75 81 120 118 102 102 91 126 139
3350.0 112 119 137 111 104 129 162 188 166 171
3390.0 174 146 119 109 137 147 157 114 92 144
3430.0 161 145 143 133 142 145 171 160 130 160
3470.0 183 149 119 133 175 192 161 123 107 126
3510.0 149 139 138 157 145 115 134 155 166 146
3550.0 135 167 130 135 184 182 192 173 161 215
3590.0 221 214 224 259 320 402 508 664 840 1063
3630.0 1352 1654 1934 1994 1996 2068 2139 2055 1840 1593
3670.0 1296 1014 786 657 485 323 286 293 255 232
3710.0 229 150 122 161 183 204 197 171 183 171
3750.0 138 152 163 191 175 173 214 224 235 226
3790.0 213 203 169 182 217 220 193 207 268 333
3830.0 319 233 235 265 257
##END=
