##TITLE=3-Methylcyclopentene
##JCAMP-DX=4.24
##DATA TYPE=INFRARED SPECTRUM
##ORIGIN=NIST Mass Spectrometry Data Center
##OWNER=NIST Standard Reference Data Program
Collection (C) 2009 copyright by the U.S. Secretary of Commerce
on behalf of the United States of America. All rights reserved.
##CAS REGISTRY NO=1120-62-3
##MOLFORM=C 6 H 10
##$NIST SOURCE=MSDC-IR
##SPECTROMETER/DATA SYSTEM=HP-GC/MS/IRD
##STATE=gas
##XUNITS=1/CM
##YUNITS=ABSORBANCE
##XFACTOR=1.0
##YFACTOR=0.000004400
##DELTAX=4.0
##FIRSTX=550.0
##LASTX=3846.0
##FIRSTY=0.000532
##MAXX=3846
##MINX=550
##MAXY=0.044
##MINY=0
##NPOINTS=825
##XYDATA=(X++(Y..Y))
550.0 121 46 0 23 25 38 71 98 113 100
590.0 79 74 82 72 50 39 51 46 50 57
630.0 55 54 46 75 129 141 110 115 148 193
670.0 258 361 498 661 854 1074 1316 1607 1955 2179
710.0 2281 2499 2864 2693 2155 1898 1706 1512 1277 1022
750.0 800 624 482 379 300 227 177 154 131 112
790.0 104 94 93 98 119 135 138 144 147 151
830.0 152 147 149 144 136 125 123 125 123 121
870.0 143 185 218 249 272 294 300 292 278 260
910.0 237 195 163 157 150 144 156 159 149 151
950.0 154 147 139 140 145 157 164 161 156 148
990.0 134 114 98 79 70 61 47 48 72 92
1030.0 108 125 150 193 240 294 346 394 438 488
1070.0 559 648 679 642 599 545 476 403 339 275
1110.0 212 159 115 80 62 56 51 41 38 35
1150.0 35 48 41 40 46 53 68 76 72 69
1190.0 77 74 67 71 73 75 78 84 81 75
1230.0 75 75 84 95 93 97 107 123 148 170
1270.0 195 205 207 224 232 239 244 238 235 220
1310.0 205 199 201 209 224 264 334 419 487 526
1350.0 573 614 602 595 602 561 530 481 367 305
1390.0 282 259 237 207 184 178 187 216 265 326
1430.0 397 476 564 665 759 822 820 774 788 797
1470.0 704 599 510 417 335 266 207 161 130 109
1510.0 92 78 69 64 55 50 50 46 45 42
1550.0 40 40 39 36 42 41 48 68 81 92
1590.0 108 128 150 167 176 187 210 234 252 271
1630.0 283 287 288 289 288 280 265 256 241 205
1670.0 170 146 126 113 105 97 79 69 60 52
1710.0 45 37 34 31 29 35 35 31 31 25
1750.0 21 20 26 30 27 26 30 29 24 27
1790.0 33 34 30 29 33 30 25 26 25 18
1830.0 18 22 25 28 31 33 37 43 43 40
1870.0 42 44 41 35 35 32 28 24 21 18
1910.0 20 23 21 20 18 16 20 19 20 24
1950.0 23 21 17 15 20 24 21 27 32 32
1990.0 36 38 38 36 38 39 37 33 31 32
2030.0 25 21 17 17 20 17 11 12 15 15
2070.0 9 12 19 19 21 25 19 16 23 28
2110.0 28 29 29 28 32 32 29 32 34 37
2150.0 35 30 32 35 33 36 39 37 34 32
2190.0 30 34 32 26 28 34 35 33 27 30
2230.0 39 40 35 29 24 24 25 28 24 21
2270.0 19 17 18 23 23 23 29 28 28 28
2310.0 30 33 28 26 30 31 32 33 29 33
2350.0 35 31 32 34 29 24 22 21 21 16
2390.0 16 24 27 20 15 12 14 20 20 19
2430.0 23 24 22 25 20 18 17 19 20 19
2470.0 22 15 9 13 15 16 15 15 17 16
2510.0 16 19 19 27 37 39 36 40 49 54
2550.0 54 56 66 65 62 59 64 67 62 67
2590.0 65 60 63 64 67 73 69 64 64 62
2630.0 58 56 53 45 41 41 40 45 52 43
2670.0 39 48 52 45 44 50 53 57 64 77
2710.0 89 95 103 120 127 124 135 145 145 147
2750.0 149 155 159 161 167 172 185 197 214 227
2790.0 242 267 296 329 367 418 470 536 635 777
2830.0 976 1242 1601 2063 2584 3121 3683 4233 4617 4845
2870.0 4997 5104 5152 4962 4670 4455 4290 4189 4172 4267
2910.0 4537 4924 5288 5634 6041 6588 7226 7833 8485 9174
2950.0 9731 10000 9925 9800 8923 7674 6641 5468 4260 3137
2990.0 2249 1595 1167 893 748 671 628 638 702 807
3030.0 987 1244 1550 1871 2172 2391 2513 2554 2509 2405
3070.0 2249 1989 1621 1199 831 565 393 287 211 172
3110.0 151 133 122 113 106 104 102 99 102 107
3150.0 109 109 119 121 121 129 138 137 136 145
3190.0 146 131 127 129 131 126 125 120 100 87
3230.0 81 72 73 66 52 52 44 37 38 33
3270.0 28 34 42 38 38 38 35 41 56 49
3310.0 42 47 41 37 32 28 29 25 14 9
3350.0 14 13 14 16 18 18 20 21 24 28
3390.0 23 22 22 30 34 23 18 24 30 33
3430.0 34 36 33 28 28 32 36 33 29 22
3470.0 17 13 16 20 19 21 24 27 34 31
3510.0 30 30 31 33 38 48 41 38 38 31
3550.0 30 33 37 35 37 41 37 37 41 37
3590.0 31 34 41 36 33 36 39 43 41 36
3630.0 41 44 47 47 46 48 47 46 42 38
3670.0 43 47 40 39 41 38 41 52 55 49
3710.0 54 61 54 37 34 35 38 46 58 59
3750.0 54 55 47 55 65 53 52 58 70 87
3790.0 94 94 92 86 83 85 93 102 101 98
3830.0 85 74 74 83 84
##END=
