##TITLE=1,3-Dichloropropene
##JCAMP-DX=4.24
##DATA TYPE=INFRARED SPECTRUM
##ORIGIN=NIST Mass Spectrometry Data Center
##OWNER=NIST Standard Reference Data Program
Collection (C) 2009 copyright by the U.S. Secretary of Commerce
on behalf of the United States of America. All rights reserved.
##CAS REGISTRY NO=542-75-6
##MOLFORM=C 3 H 4 Cl 2
##$NIST SOURCE=MSDC-IR
##SPECTROMETER/DATA SYSTEM=HP-GC/MS/IRD
##STATE=gas
##XUNITS=1/CM
##YUNITS=ABSORBANCE
##XFACTOR=1.0
##YFACTOR=0.000001800
##DELTAX=4.0
##FIRSTX=550.0
##LASTX=3846.0
##FIRSTY=0.000922
##MAXX=3846
##MINX=550
##MAXY=0.018
##MINY=0
##NPOINTS=825
##XYDATA=(X++(Y..Y))
550.0 512 466 416 354 181 60 62 12 63 154
590.0 127 122 131 152 132 156 166 183 234 225
630.0 247 311 379 411 460 560 643 769 927 1064
670.0 1220 1357 1443 1476 1403 1318 1242 1132 1096 1124
710.0 1223 1425 1669 1988 2451 2930 3333 3642 3898 4202
750.0 4621 5164 5969 7138 8501 9652 10000 9568 8725 7488
790.0 5983 4532 3424 2643 2168 1867 1546 1261 1048 856
830.0 698 563 477 411 365 323 302 314 291 287
870.0 301 290 312 325 326 337 325 341 367 338
910.0 296 276 250 252 256 263 263 264 211 164
950.0 175 165 156 163 181 190 192 218 237 235
990.0 224 209 243 280 291 328 379 438 495 484
1030.0 462 451 410 384 327 241 182 162 155 110
1070.0 71 79 73 81 108 103 102 99 87 61
1110.0 70 119 119 84 86 88 69 73 94 138
1150.0 169 161 166 180 186 192 185 195 191 179
1190.0 192 216 256 303 382 517 686 795 827 886
1230.0 906 894 963 1224 1846 2623 3133 3250 3261 3334
1270.0 3076 2207 1303 825 637 542 457 421 446 522
1310.0 656 829 1062 1343 1629 1868 1984 1969 1931 1890
1350.0 1681 1344 1066 838 650 489 345 254 206 180
1390.0 159 151 145 162 172 162 177 208 240 293
1430.0 333 363 408 424 427 449 459 412 351 329
1470.0 295 231 190 174 158 138 132 129 124 132
1510.0 129 112 112 110 105 113 124 131 142 146
1550.0 147 157 181 222 265 310 381 471 540 601
1590.0 696 798 923 1091 1333 1665 2101 2526 2798 2859
1630.0 2729 2521 2171 1602 1049 729 553 426 349 293
1670.0 254 239 232 221 207 187 165 158 144 118
1710.0 94 81 70 60 60 54 44 52 58 60
1750.0 78 87 71 60 50 47 63 79 77 65
1790.0 54 68 81 66 66 74 61 65 80 78
1830.0 68 59 46 35 48 45 29 32 36 43
1870.0 45 34 16 15 19 30 37 27 17 22
1910.0 29 33 35 31 35 32 24 33 46 35
1950.0 16 25 37 41 27 11 16 23 17 10
1990.0 17 28 31 26 7 0 8 15 15 11
2030.0 5 9 23 37 39 29 22 21 12 24
2070.0 35 31 41 46 31 25 36 45 37 27
2110.0 30 38 45 46 45 46 28 13 21 25
2150.0 39 44 28 22 23 18 16 21 23 24
2190.0 26 32 45 45 24 18 16 8 14 19
2230.0 25 33 32 24 28 32 34 28 28 36
2270.0 31 29 30 33 29 36 52 48 43 42
2310.0 45 63 75 71 62 59 78 85 83 78
2350.0 78 80 79 89 97 99 93 90 87 83
2390.0 90 98 86 67 65 70 62 48 58 72
2430.0 63 65 68 69 61 57 71 77 70 74
2470.0 74 73 74 70 62 53 59 70 80 78
2510.0 74 68 71 72 63 74 80 64 67 69
2550.0 63 60 62 67 67 76 69 51 58 68
2590.0 71 65 49 63 81 81 88 88 81 73
2630.0 62 62 63 60 54 61 73 74 78 88
2670.0 85 71 66 83 99 96 102 122 122 117
2710.0 115 127 136 92 67 74 76 79 77 76
2750.0 67 80 112 114 103 104 99 101 97 96
2790.0 86 69 75 96 99 89 77 93 102 97
2830.0 118 128 125 112 127 146 154 163 161 163
2870.0 165 170 165 165 171 187 190 176 172 183
2910.0 196 214 224 231 254 277 318 381 434 479
2950.0 528 553 581 616 614 594 557 546 563 547
2990.0 531 489 442 416 393 357 329 312 298 313
3030.0 289 256 261 274 300 311 301 308 325 336
3070.0 348 375 420 483 541 537 495 504 491 395
3110.0 293 225 184 154 114 109 102 89 91 60
3150.0 36 75 71 35 46 50 75 97 59 55
3190.0 80 86 103 95 84 75 73 90 71 64
3230.0 74 73 98 98 79 73 81 77 56 64
3270.0 91 72 44 54 64 73 80 52 33 37
3310.0 47 72 87 79 50 57 67 52 66 81
3350.0 78 50 31 42 53 21 19 36 27 45
3390.0 69 61 48 42 37 55 48 8 26 58
3430.0 61 74 72 40 21 32 44 39 35 58
3470.0 42 9 30 31 35 56 45 26 48 59
3510.0 18 23 56 52 36 31 34 32 34 23
3550.0 10 29 33 32 9 10 19 26 50 46
3590.0 40 50 63 87 81 64 60 42 31 36
3630.0 40 9 21 55 61 56 43 23 15 33
3670.0 35 38 39 40 40 27 30 42 51 42
3710.0 18 18 25 23 39 66 73 66 46 38
3750.0 52 48 46 37 31 34 48 54 36 44
3790.0 64 61 81 84 66 82 83 87 67 55
3830.0 84 54 23 24 44
##END=
