##TITLE=1,3,5-Triazine
##JCAMP-DX=4.24
##DATA TYPE=INFRARED SPECTRUM
##ORIGIN=NIST Mass Spectrometry Data Center
##OWNER=NIST Standard Reference Data Program
Collection (C) 2009 copyright by the U.S. Secretary of Commerce
on behalf of the United States of America. All rights reserved.
##CAS REGISTRY NO=290-87-9
##MOLFORM=C 3 H 3 N 3
##$NIST SOURCE=MSDC-IR
##SPECTROMETER/DATA SYSTEM=HP-GC/MS/IRD
##STATE=gas
##XUNITS=1/CM
##YUNITS=ABSORBANCE
##XFACTOR=1.0
##YFACTOR=0.000004300
##DELTAX=4.0
##FIRSTX=550.0
##LASTX=3846.0
##FIRSTY=0.000241
##MAXX=3846
##MINX=550
##MAXY=0.043
##MINY=0
##NPOINTS=825
##XYDATA=(X++(Y..Y))
550.0 56 42 76 44 42 39 27 70 103 94
590.0 62 66 81 83 87 94 93 109 114 100
630.0 131 169 240 359 475 611 721 766 775 783
670.0 979 1482 1707 1396 1203 1325 1506 1636 1678 1590
710.0 1433 1252 1129 1126 1354 1775 1940 1360 727 658
750.0 676 612 526 412 311 241 187 155 123 108
790.0 88 78 94 95 99 116 128 151 146 142
830.0 139 130 155 170 146 133 122 109 109 108
870.0 96 85 86 85 78 82 81 83 84 77
910.0 78 76 88 90 78 71 69 76 74 81
950.0 90 83 85 84 81 82 86 99 94 78
990.0 79 93 97 96 94 88 99 102 98 102
1030.0 99 105 104 108 107 116 107 86 96 103
1070.0 102 96 95 87 76 75 73 74 67 51
1110.0 61 70 54 56 57 41 39 56 66 68
1150.0 80 76 71 68 80 92 83 71 60 60
1190.0 59 56 53 41 19 3 0 1 9 15
1230.0 13 14 28 25 17 27 35 30 28 28
1270.0 30 35 40 45 43 43 47 50 48 48
1310.0 49 49 52 58 66 67 69 77 84 102
1350.0 129 169 221 318 505 817 1336 2100 3095 4192
1390.0 5135 5687 5882 5984 5966 5674 5601 5778 5537 4590
1430.0 3243 2018 1167 686 441 308 238 204 178 169
1470.0 180 192 218 258 303 347 384 462 578 727
1510.0 944 1291 1836 2659 3817 5326 7075 8744 9879 10000
1550.0 9415 9198 9543 8906 6671 4154 2499 1506 947 623
1590.0 434 314 245 203 175 147 134 128 120 126
1630.0 135 137 138 144 139 130 123 118 128 142
1670.0 119 96 90 82 81 72 69 70 56 51
1710.0 57 63 69 69 74 98 115 120 129 151
1750.0 173 172 172 184 192 197 192 181 176 173
1790.0 172 161 138 111 86 74 65 61 62 66
1830.0 69 68 75 87 88 83 75 67 65 65
1870.0 64 57 51 44 43 46 52 60 62 67
1910.0 78 97 108 110 115 120 116 111 106 105
1950.0 101 91 76 57 45 40 41 46 45 40
1990.0 41 43 50 63 65 66 77 82 81 88
2030.0 86 85 80 75 74 67 58 50 42 40
2070.0 45 49 48 43 39 34 35 38 30 28
2110.0 32 28 25 24 27 30 27 26 27 28
2150.0 29 29 30 30 30 29 34 38 33 31
2190.0 28 27 30 32 35 43 44 47 58 61
2230.0 69 83 96 102 103 109 114 114 120 128
2270.0 126 110 95 93 94 90 71 47 40 44
2310.0 45 48 52 53 56 67 70 71 74 69
2350.0 65 73 76 64 59 67 77 74 64 58
2390.0 63 66 68 73 73 72 68 57 50 45
2430.0 36 38 38 31 28 33 39 38 40 46
2470.0 44 48 53 56 61 59 62 75 85 92
2510.0 109 119 121 138 146 135 125 121 129 145
2550.0 137 120 113 114 118 122 117 115 109 88
2590.0 73 60 51 50 46 43 46 49 47 44
2630.0 49 47 49 59 49 45 49 41 35 46
2670.0 48 54 64 61 60 65 63 55 50 45
2710.0 46 51 54 53 53 54 53 54 59 56
2750.0 46 42 40 48 58 56 47 51 54 47
2790.0 38 37 38 45 53 57 55 50 40 40
2830.0 47 46 52 55 57 54 57 63 68 77
2870.0 79 77 86 95 105 118 125 137 145 147
2910.0 162 167 153 147 155 152 141 126 120 129
2950.0 129 122 116 111 114 111 100 87 81 81
2990.0 84 89 90 90 111 161 217 287 382 491
3030.0 625 779 901 975 1029 1106 1165 1143 1131 1172
3070.0 1151 1012 824 657 534 472 418 379 371 378
3110.0 370 318 252 223 215 199 171 140 128 109
3150.0 78 54 50 56 47 48 50 57 56 47
3190.0 46 62 72 53 51 48 47 66 67 65
3230.0 62 57 47 50 63 58 60 62 65 67
3270.0 58 65 64 52 55 63 49 55 73 64
3310.0 60 54 46 50 64 65 75 59 45 59
3350.0 62 66 57 53 54 47 54 67 58 42
3390.0 50 54 58 66 64 63 54 57 58 60
3430.0 53 49 73 80 63 57 64 60 64 70
3470.0 61 51 53 54 35 37 52 54 54 53
3510.0 47 38 59 68 55 58 58 53 57 56
3550.0 51 67 68 44 44 58 52 48 54 59
3590.0 61 56 40 41 42 57 75 71 58 59
3630.0 65 54 55 68 72 63 51 52 59 57
3670.0 78 88 81 75 61 61 56 50 66 72
3710.0 77 74 67 64 46 53 78 72 69 77
3750.0 71 69 78 66 50 49 52 60 61 62
3790.0 66 77 89 94 80 57 67 77 69 74
3830.0 68 49 45 58 70
##END=
