##TITLE=2,2,2-Trifluoroethylamine
##JCAMP-DX=4.24
##DATA TYPE=INFRARED SPECTRUM
##ORIGIN=NIST Mass Spectrometry Data Center
##OWNER=NIST Standard Reference Data Program
Collection (C) 2009 copyright by the U.S. Secretary of Commerce
on behalf of the United States of America. All rights reserved.
##CAS REGISTRY NO=753-90-2
##MOLFORM=C 2 H 4 F 3 N
##SOURCE REFERENCE=No.124721 (NIST/EPA/NIH MS Database)
##$NIST SOURCE=MSDC-IR
##SPECTROMETER/DATA SYSTEM=HP-GC/MS/IRD
##STATE=gas
##XUNITS=1/CM
##YUNITS=ABSORBANCE
##XFACTOR=1.0
##YFACTOR=0.000001800
##DELTAX=4.0
##FIRSTX=550.0
##LASTX=3846.0
##FIRSTY=0.000436
##MAXX=3846
##MINX=550
##MAXY=0.018
##MINY=0
##NPOINTS=825
##XYDATA=(X++(Y..Y))
550.0 242 313 165 166 239 254 169 118 107 54
590.0 8 30 86 158 194 203 238 283 367 444
630.0 510 571 618 652 729 799 743 714 683 622
670.0 638 649 611 599 626 644 684 734 775 813
710.0 893 1019 1115 1196 1335 1498 1732 1972 2164 2287
750.0 2372 2457 2422 2295 2119 1896 1610 1280 991 833
790.0 711 605 626 672 686 804 964 1135 1276 1345
830.0 1421 1483 1394 1269 1173 1052 933 804 745 774
870.0 799 782 743 677 607 587 556 502 452 431
910.0 444 433 454 466 473 477 467 437 422 423
950.0 389 370 340 311 332 336 320 318 319 313
990.0 305 302 305 321 320 296 331 382 381 400
1030.0 467 514 582 688 804 956 1245 1558 1847 2188
1070.0 2608 3070 3486 3898 4364 4745 4880 4801 4608 4400
1110.0 4159 3849 3560 3400 3426 3632 3994 4529 5259 6142
1150.0 7095 8030 8877 9592 10000 9839 9217 8405 7282 5848
1190.0 4485 3480 2809 2428 2223 2131 2226 2530 2935 3433
1230.0 4067 4777 5593 6595 7685 8495 9006 9460 9559 9178
1270.0 8553 7668 6340 5076 4192 3375 2619 2032 1631 1365
1310.0 1202 1106 1035 977 930 901 899 903 918 939
1350.0 957 978 1029 1079 1111 1114 1093 1080 1021 943
1390.0 897 829 756 691 615 530 458 407 388 373
1430.0 349 326 309 311 317 307 275 244 224 199
1470.0 170 135 124 107 77 59 53 46 45 29
1510.0 14 21 22 12 13 18 19 18 15 11
1550.0 13 32 23 38 67 72 74 89 109 123
1590.0 147 184 241 300 351 405 491 557 612 664
1630.0 672 664 645 590 522 437 349 291 248 208
1670.0 142 106 97 77 69 54 43 37 38 52
1710.0 50 29 16 14 23 31 29 29 31 36
1750.0 17 8 27 26 28 26 30 31 42 51
1790.0 41 54 54 57 56 54 54 53 55 58
1830.0 53 47 44 36 50 60 48 52 43 20
1870.0 20 34 35 48 49 33 36 40 35 27
1910.0 34 42 46 43 35 31 45 58 53 48
1950.0 54 50 42 48 39 31 27 25 35 28
1990.0 25 25 22 25 21 34 47 39 44 40
2030.0 46 63 42 22 44 58 55 54 37 29
2070.0 42 42 49 54 45 39 45 41 26 31
2110.0 30 48 64 51 41 38 32 26 30 34
2150.0 23 29 38 34 35 47 50 35 22 23
2190.0 37 40 36 30 29 18 12 28 38 40
2230.0 29 40 55 43 35 31 28 30 20 5
2270.0 16 31 24 16 26 43 51 36 43 56
2310.0 46 44 57 59 34 33 46 60 60 38
2350.0 21 22 32 20 1 7 23 30 34 24
2390.0 14 19 32 47 40 18 13 15 21 33
2430.0 26 24 40 52 24 17 28 23 10 5
2470.0 18 26 35 38 34 30 29 39 39 52
2510.0 59 32 34 44 42 45 17 3 26 28
2550.0 34 44 37 24 8 34 54 35 22 19
2590.0 18 29 35 42 40 26 24 25 22 14
2630.0 6 22 22 28 50 44 31 42 49 39
2670.0 18 6 19 46 39 27 37 53 44 30
2710.0 34 36 47 65 61 49 57 80 81 47
2750.0 9 2 19 41 72 91 90 81 68 49
2790.0 76 104 103 88 80 95 98 67 50 61
2830.0 97 124 135 157 172 158 138 116 119 153
2870.0 188 240 264 246 223 198 204 206 195 218
2910.0 213 213 256 279 313 383 449 521 617 677
2950.0 723 786 851 857 817 773 712 629 555 510
2990.0 438 342 293 243 191 153 105 105 126 128
3030.0 107 67 72 102 70 55 56 38 22 17
3070.0 32 28 33 39 37 17 28 49 23 33
3110.0 89 72 45 76 103 103 99 85 70 54
3150.0 41 47 20 15 50 73 67 62 60 58
3190.0 101 91 51 65 61 48 45 34 50 71
3230.0 84 77 67 83 99 76 76 83 67 92
3270.0 121 111 106 95 97 97 86 73 60 44
3310.0 56 91 108 111 114 99 78 63 56 66
3350.0 82 75 67 116 172 143 90 109 153 156
3390.0 144 128 91 79 126 144 119 161 195 193
3430.0 212 274 309 303 297 263 223 197 173 173
3470.0 156 147 105 35 59 117 123 127 126 86
3510.0 64 62 24 32 99 104 76 96 97 65
3550.0 41 50 76 53 14 18 35 32 29 28
3590.0 28 12 43 85 86 100 71 59 89 58
3630.0 61 91 46 58 77 53 30 52 55 20
3670.0 42 58 52 59 72 74 79 99 77 72
3710.0 78 60 105 109 55 64 46 36 31 3
3750.0 33 68 50 36 37 5 24 75 25 1
3790.0 4 0 20 33 32 75 97 52 16 28
3830.0 8 11 40 40 29
##END=
