##TITLE=1,1-Dibromo-1-propene
##JCAMP-DX=4.24
##DATA TYPE=INFRARED SPECTRUM
##ORIGIN=EPA-IR VAPOR PHASE LIBRARY
##OWNER=SRD/NIST
Collection (C) 2009 copyright by the U.S. Secretary of Commerce
on behalf of the United States of America. All rights reserved.
##CAS REGISTRY NO=13195-80-7
##MOLFORM=C 3 H 4 Br 2
##$NIST SOURCE=MSDC-IR
##STATE=gas
##XUNITS=1/CM
##YUNITS=ABSORBANCE
##XFACTOR=1.
##YFACTOR=0.001
##DELTAX=3.85796
##FIRSTX=501.5
##LASTX=4000.7
##FIRSTY=3.383
##MAXX=4000.7
##MINX=501.534
##MAXY=0.079743
##MINY=0
##NPOINTS=908
##XYDATA=(X++(Y..Y))
501.534 3.383 2.833 1.603 0.8026 0.505 0.4038 0.4354 0.3887 0.3677 0.3951
540.114 0.417 0.4363 0.3799 0.3582 0.4067 0.399 0.3465 0.23966 0.24651 0.33
578.693 0.4017 0.3926 0.4057 0.4904 0.5572 0.5984 0.7513 0.8985 1.0244 1.1126
617.273 1.0678 1.0169 0.9504 0.8176 0.7093 0.704 0.6113 0.4752 0.4071 0.3771
655.852 0.3791 0.3671 0.3734 0.3907 0.4193 0.4298 0.4724 0.5479 0.6025 0.7774
694.432 0.9834 1.163 1.373 1.543 1.623 1.563 1.483 1.423 1.303 1.313
733.011 1.463 1.633 1.913 2.323 2.833 3.403 4.173 5.433 7.353 10.113
771.591 14.083 19.503 26.283 34.513 44.553 56.243 68.463 77.383 79.743 76.813
810.170 67.633 51.743 34.203 22.063 16.193 12.983 10.733 8.673 6.403 4.183
848.750 2.713 2.003 1.633 1.453 1.273 1.1246 1.0248 0.9184 0.8865 0.8334
887.330 0.7081 0.6884 0.7094 0.7085 0.7517 0.7931 0.835 0.9373 1.0709 1.163
925.909 1.273 1.503 1.893 2.423 3.183 4.283 5.643 7.003 7.923 8.263
964.489 8.243 7.633 6.393 4.973 3.683 2.843 2.393 2.133 2.033 1.973
1003.068 1.853 1.743 1.723 1.753 1.813 1.973 2.093 2.183 2.223 1.983
1041.648 1.783 1.613 1.353 1.213 1.173 1.173 1.323 1.443 1.573 1.993
1080.227 2.703 4.003 5.843 7.703 9.043 9.673 9.523 8.393 6.573 4.633
1118.807 3.303 2.483 1.923 1.703 1.543 1.453 1.463 1.423 1.343 1.203
1157.387 1.0261 0.9289 0.908 0.8699 0.8071 0.806 0.8595 0.808 0.7561 0.775
1195.966 0.7539 0.8257 0.9134 0.97 0.975 0.9192 0.9065 0.9936 1.0747 1.0392
1234.546 0.992 0.98 1.1035 1.303 1.623 2.213 3.283 5.223 8.113 10.503
1273.125 11.193 11.323 11.043 9.233 6.613 4.623 3.433 2.733 2.253 1.883
1311.705 1.583 1.383 1.243 1.1289 1.0832 1.0627 1.0749 1.1145 1.163 1.253
1350.284 1.393 1.543 1.673 1.823 2.023 2.253 2.563 2.823 2.963 2.973
1388.864 2.803 2.423 2.003 1.713 1.573 1.533 1.533 1.573 1.663 1.813
1427.443 1.983 2.213 2.423 2.593 2.733 2.813 2.723 2.553 2.383 2.173
1466.023 1.963 1.793 1.653 1.553 1.533 1.563 1.633 1.763 1.903 2.023
1504.603 2.133 2.223 2.223 2.163 2.053 1.903 1.733 1.583 1.493 1.463
1543.182 1.433 1.453 1.533 1.663 1.863 2.093 2.383 2.743 3.133 3.543
1581.762 3.883 4.113 4.253 4.353 4.253 4.023 3.843 3.793 3.883 4.103
1620.341 4.423 4.813 5.183 5.433 5.403 5.053 4.543 3.773 2.793 1.803
1658.921 1.183 0.8074 0.5821 0.451 0.3736 0.3134 0.3127 0.3152 0.2967 0.3052
1697.500 0.3002 0.2723 0.24765 0.22273 0.23529 0.24013 0.23046 0.24844 0.24587 0.25287
1736.080 0.2789 0.2815 0.2912 0.3122 0.3104 0.3062 0.2986 0.2877 0.2766 0.2724
1774.659 0.292 0.3031 0.3099 0.3275 0.3385 0.3422 0.3739 0.4331 0.5185 0.6239
1813.239 0.7386 0.8702 0.98 1.0447 1.0548 1.0278 0.958 0.8558 0.7132 0.546
1851.819 0.4264 0.3349 0.263 0.23271 0.209 0.18567 0.17283 0.16587 0.158836 0.161836
1890.398 0.18984 0.19929 0.201 0.20541 0.19754 0.18852 0.16864 0.1398 0.14696 0.14833
1928.978 0.1394 0.152348 0.1406 0.1282 0.1227 0.1057 0.0989 0.0924 0.0778 0.0657
1967.557 0.0888 0.1044 0.0974 0.1121 0.1161 0.0906 0.0895 0.1091 0.1205 0.1048
2006.137 0.1021 0.105 0.0753 0.0797 0.0825 0.0744 0.0704 0.0673 0.0727 0.08
2044.716 0.0878 0.12 0.16395 0.14828 0.14986 0.17496 0.160176 0.1395 0.1247 0.1236
2083.296 0.131 0.1278 0.1139 0.1062 0.0975 0.0788 0.081 0.1049 0.0957 0.0923
2121.875 0.1097 0.1031 0.0932 0.0837 0.0861 0.0991 0.0958 0.0961 0.0897 0.0864
2160.455 0.091 0.0939 0.1071 0.1098 0.1125 0.1286 0.14913 0.1465 0.1319 0.1246
2199.035 0.1248 0.1116 0.0802 0.0778 0.0807 0.1011 0.14765 0.15039 0.1424 0.17968
2237.614 0.18337 0.17628 0.1935 0.17758 0.154853 0.1365 0.1205 0.1045 0.0871 0.082
2276.194 0.09 0.0889 0.0909 0.0917 0.0905 0.092 0.081 0.0723 0.0721 0.0765
2314.773 0.0996 0.0926 0.0922 0.1209 0.15176 0.18327 0.20949 0.22855 0.20276 0.18478
2353.353 0.16725 0.16287 0.19039 0.19654 0.19127 0.19469 0.20124 0.21469 0.21808 0.2163
2391.932 0.22224 0.18799 0.17545 0.18782 0.18375 0.158609 0.1484 0.152739 0.1311 0.115
2430.512 0.1207 0.1163 0.1165 0.1153 0.1175 0.126 0.1192 0.1354 0.14512 0.1989
2469.092 0.23888 0.22795 0.23884 0.23852 0.20959 0.16817 0.1296 0.1153 0.1205 0.1151
2507.671 0.1127 0.0978 0.0905 0.1082 0.1209 0.1114 0.1283 0.1303 0.1316 0.1659
2546.251 0.1358 0.105 0.1046 0.0876 0.0755 0.0999 0.0942 0.057 0.027 0.028
2584.830 0.05 0.0551 0.0638 0.0681 0.0607 0.036 0.013 0.023 0.04 0.028
2623.410 0.017 0.049 0.078 0.074 0.0824 0.0612 0.029 0.051 0.0811 0.0639
2661.989 0.0717 0.1122 0.0792 0.0738 0.0887 0.0613 0.049 0.052 0.0623 0.0971
2700.569 0.14954 0.158241 0.156788 0.17121 0.18777 0.23361 0.2828 0.323 0.3939 0.4678
2739.148 0.5273 0.5721 0.5904 0.5561 0.4947 0.4299 0.3372 0.2745 0.22651 0.19589
2777.728 0.19275 0.21065 0.24479 0.264 0.2881 0.3007 0.3414 0.4357 0.4886 0.4874
2816.308 0.5238 0.6323 0.7104 0.785 0.9292 1.0779 1.293 1.623 1.973 2.433
2854.887 3.113 3.873 4.503 4.813 4.853 4.683 4.213 3.633 3.203 2.923
2893.467 2.813 2.913 3.183 3.693 4.503 5.743 7.513 9.823 12.163 13.493
2932.046 13.663 13.343 12.283 10.143 7.863 6.193 5.133 4.323 3.633 3.153
2970.626 2.773 2.493 2.323 2.213 2.163 2.243 2.403 2.543 2.763 3.043
3009.205 3.343 3.643 3.913 4.183 4.483 4.833 5.113 5.103 4.723 4.213
3047.785 3.603 2.903 2.263 1.823 1.623 1.493 1.413 1.393 1.343 1.293
3086.364 1.243 1.203 1.1371 1.0101 0.8708 0.7861 0.7197 0.6474 0.6018 0.5772
3124.944 0.5385 0.5213 0.4786 0.4581 0.4176 0.3557 0.3478 0.3317 0.3241 0.3328
3163.524 0.3604 0.3359 0.2581 0.258 0.2732 0.2768 0.2976 0.2963 0.3324 0.4102
3202.103 0.4265 0.4636 0.473 0.4105 0.4255 0.44 0.4442 0.4252 0.3339 0.2694
3240.683 0.23572 0.21308 0.2586 0.2568 0.21394 0.19817 0.22929 0.2728 0.2675 0.20887
3279.262 0.1459 0.1366 0.153444 0.16684 0.128 0.11 0.1301 0.1397 0.1143 0.0964
3317.842 0.1088 0.0952 0.1336 0.1351 0.0627 0.047 0.0749 0.0767 0.01 0.019
3356.421 0.071 0.1082 0.1293 0.0864 0.0806 0.0928 0.1036 0.0948 0.072 0.0729
3395.001 0.0709 0.0721 0.043 0.018 0.0791 0.0963 0.053 0.0783 0.1128 0.0996
3433.580 0.062 0.097 0.108 0.0988 0.1198 0.0824 0.0955 0.1102 0.1271 0.1144
3472.160 0.0661 0.042 0.037 0.0784 0.1068 0.1374 0.1277 0.102 0.1135 0.17185
3510.740 0.24011 0.2202 0.24504 0.2938 0.2874 0.20681 0.16437 0.22563 0.2082 0.15078
3549.319 0.107 0.1251 0.1111 0.0955 0.1471 0.0942 0.0867 0.1156 0.1043 0.1065
3587.899 0.0902 0.1411 0.17399 0.0766 0.039 0.037 0.031 0.065 0 0.029
3626.478 0.0861 0.018 0.009 0.0622 0.0789 0.1276 0.17584 0.1425 0.1196 0.0797
3665.058 0.1359 0.21998 0.17882 0.1395 0.136 0.158684 0.18709 0.1405 0.1028 0.15214
3703.637 0.19295 0.17762 0.1104 0.0651 0.0598 0.0825 0.1139 0.1029 0.0687 0.0722
3742.217 0.0977 0.1232 0.1114 0.1016 0.18045 0.16538 0.1238 0.1221 0.1236 0.1428
3780.797 0.157523 0.15581 0.159831 0.17197 0.159191 0.16342 0.1032 0.0874 0.1093 0.158114
3819.376 0.18998 0.158908 0.18636 0.19733 0.23666 0.2877 0.291 0.22474 0.20378 0.20351
3857.956 0.16459 0.1518 0.162658 0.19283 0.18734 0.160077 0.15078 0.194 0.2558 0.2569
3896.535 0.16716 0.1198 0.1147 0.1241 0.17371 0.143 0.1153 0.16591 0.14884 0.128
3935.115 0.17221 0.18183 0.1944 0.20177 0.17755 0.20762 0.23965 0.24145 0.20185 0.17931
3973.694 0.20903 0.1732 0.15505 0.18248 0.1348 0.0718 0.0619 0.051
##END=
