##TITLE=3-Pentanone
##JCAMP-DX=4.24
##DATA TYPE=INFRARED SPECTRUM
##ORIGIN=NIST Mass Spectrometry Data Center
##OWNER=NIST Standard Reference Data Program
Collection (C) 2009 copyright by the U.S. Secretary of Commerce
on behalf of the United States of America. All rights reserved.
##CAS REGISTRY NO=96-22-0
##MOLFORM=C 5 H 10 O
##$NIST SOURCE=MSDC-IR
##SPECTROMETER/DATA SYSTEM=HP-GC/MS/IRD
##STATE=gas
##XUNITS=1/CM
##YUNITS=ABSORBANCE
##XFACTOR=1.0
##YFACTOR=0.000001400
##DELTAX=4.0
##FIRSTX=550.0
##LASTX=3846.0
##FIRSTY=0.000405
##MAXX=3846
##MINX=550
##MAXY=0.014
##MINY=0
##NPOINTS=825
##XYDATA=(X++(Y..Y))
550.0 289 104 0 120 237 233 180 167 119 121
590.0 189 205 203 159 132 150 212 178 201 253
630.0 113 72 162 144 49 56 187 235 115 67
670.0 87 81 100 124 128 77 93 125 129 136
710.0 88 86 160 171 167 213 200 167 189 176
750.0 150 135 117 172 194 187 239 239 260 323
790.0 343 430 445 459 547 520 485 498 453 397
830.0 397 375 324 290 261 280 334 330 294 261
870.0 279 301 294 238 220 249 268 302 355 462
910.0 569 710 990 1346 1652 1930 2179 2329 2432 2408
950.0 2288 2059 1665 1306 1046 817 632 531 497 515
990.0 528 566 683 756 818 916 974 1006 989 962
1030.0 899 791 692 596 577 580 577 555 594 680
1070.0 758 877 1018 1147 1347 1519 1680 1961 2275 2502
1110.0 2642 2709 2739 2762 2749 2588 2359 2215 2220 2262
1150.0 2272 2376 2447 2468 2439 2344 2228 2042 1757 1516
1190.0 1362 1164 968 802 698 666 621 583 569 558
1230.0 544 571 597 593 624 647 642 632 579 553
1270.0 587 583 554 564 580 575 619 683 741 825
1310.0 940 1098 1273 1467 1657 1854 2122 2375 2587 2668
1350.0 2685 2672 2568 2419 2230 2039 1855 1717 1666 1660
1390.0 1688 1701 1631 1568 1601 1665 1724 1779 1842 1897
1430.0 1945 2005 2013 2021 2090 2232 2373 2436 2340 2167
1470.0 2068 1929 1745 1468 1205 1010 856 711 621 562
1510.0 500 465 425 401 394 357 321 297 258 260
1550.0 278 235 193 213 246 231 214 210 225 222
1590.0 230 249 247 254 265 291 304 311 313 318
1630.0 300 276 309 335 343 326 348 429 485 563
1670.0 638 744 934 1131 1442 1895 2437 3156 4068 5156
1710.0 6387 7591 8674 9462 9895 10000 9827 9456 8691 7447
1750.0 5985 4586 3374 2455 1809 1335 1007 805 639 520
1790.0 449 392 329 296 286 265 240 217 203 187
1830.0 169 149 153 164 163 152 152 159 153 133
1870.0 128 154 146 123 117 109 104 121 140 145
1910.0 133 127 134 144 144 152 142 126 126 118
1950.0 104 100 114 142 157 137 132 121 112 137
1990.0 146 126 121 130 126 119 122 118 99 97
2030.0 103 110 118 102 79 104 127 125 106 96
2070.0 88 80 83 78 69 74 91 109 89 89
2110.0 95 81 101 122 108 89 88 74 82 98
2150.0 97 78 80 112 102 97 112 97 77 71
2190.0 74 81 68 66 71 79 72 56 55 88
2230.0 103 76 63 63 45 27 56 88 91 104
2270.0 90 59 55 60 57 54 74 91 72 72
2310.0 67 50 54 95 115 97 95 80 61 61
2350.0 58 63 42 31 52 80 95 105 118 111
2390.0 100 89 94 78 69 89 94 95 68 66
2430.0 85 98 112 89 77 90 82 82 85 75
2470.0 99 82 39 64 111 115 80 63 66 87
2510.0 87 64 77 90 74 67 77 70 57 47
2550.0 53 65 70 68 42 56 110 103 73 72
2590.0 74 87 79 91 116 104 85 83 81 64
2630.0 60 97 96 63 58 119 140 115 152 170
2670.0 137 80 122 147 149 144 83 117 166 150
2710.0 138 126 143 171 173 179 197 219 205 219
2750.0 237 244 257 257 250 226 239 265 268 276
2790.0 308 365 384 415 468 519 566 596 625 660
2830.0 710 731 750 817 871 913 994 1105 1246 1450
2870.0 1710 2006 2352 2766 3134 3470 3836 4194 4475 4635
2910.0 4705 4755 4818 4879 4887 4962 5228 5554 5751 5829
2950.0 5896 6020 6234 6349 6360 6533 6850 7117 7272 7244
2990.0 7025 6510 5675 4727 3850 3160 2605 2164 1817 1513
3030.0 1268 1077 958 864 774 707 657 611 574 560
3070.0 526 488 462 421 400 395 421 434 376 334
3110.0 316 335 337 310 320 331 295 261 271 283
3150.0 291 277 281 244 207 238 256 243 211 216
3190.0 234 207 191 159 161 203 155 73 78 108
3230.0 123 117 92 90 95 83 83 76 98 112
3270.0 124 156 120 65 40 80 110 109 134 109
3310.0 57 70 104 78 67 101 155 151 131 137
3350.0 111 70 71 104 82 78 101 80 92 134
3390.0 144 164 190 214 194 185 227 213 204 245
3430.0 283 337 333 286 265 253 255 215 156 142
3470.0 181 164 122 111 102 87 79 91 115 130
3510.0 80 67 144 159 93 43 44 114 81 69
3550.0 116 129 86 24 42 78 65 38 45 98
3590.0 131 106 80 114 152 106 71 79 99 96
3630.0 57 44 58 94 61 30 94 107 63 46
3670.0 77 55 27 54 76 63 42 66 54 66
3710.0 94 120 108 81 101 150 176 100 43 102
3750.0 59 27 52 84 79 63 73 67 64 74
3790.0 70 69 48 22 37 74 81 86 110 93
3830.0 89 77 74 82 31
##END=
