##TITLE=3-Methyl-1-pentyne
##JCAMP-DX=4.24
##DATA TYPE=INFRARED SPECTRUM
##ORIGIN=NIST Mass Spectrometry Data Center
##OWNER=NIST Standard Reference Data Program
Collection (C) 2009 copyright by the U.S. Secretary of Commerce
on behalf of the United States of America. All rights reserved.
##CAS REGISTRY NO=922-59-8
##MOLFORM=C 6 H 10
##$NIST SOURCE=MSDC-IR
##SPECTROMETER/DATA SYSTEM=HP-GC/MS/IRD
##STATE=gas
##XUNITS=1/CM
##YUNITS=ABSORBANCE
##XFACTOR=1.0
##YFACTOR=0.000006700
##DELTAX=4.0
##FIRSTX=550.0
##LASTX=3846.0
##FIRSTY=0.001977
##MAXX=3846
##MINX=550
##MAXY=0.067
##MINY=0
##NPOINTS=825
##XYDATA=(X++(Y..Y))
550.0 295 433 311 284 248 229 197 178 169 190
590.0 236 308 407 596 902 1376 2091 3160 4638 6925
630.0 9279 10000 8772 6573 4500 2883 1798 1104 680 417
670.0 263 173 115 80 67 61 47 30 27 34
710.0 35 31 30 23 26 35 30 27 35 46
750.0 48 59 72 75 81 80 84 92 98 100
790.0 107 120 127 131 130 134 137 126 108 85
830.0 72 58 42 31 26 27 17 8 21 28
870.0 32 40 42 42 41 41 47 44 32 26
910.0 33 34 20 15 17 29 38 46 63 80
950.0 104 139 174 206 249 278 279 273 267 253
990.0 240 242 244 259 281 287 295 296 274 243
1030.0 216 183 143 119 105 92 81 81 95 116
1070.0 131 157 196 227 254 269 283 294 293 261
1110.0 205 159 123 97 87 80 78 86 95 100
1150.0 101 98 98 94 86 83 69 54 46 43
1190.0 38 28 29 39 49 63 90 144 253 446
1230.0 794 1282 1740 1988 2051 2076 2051 1982 1747 1292
1270.0 857 555 387 310 270 250 248 252 265 295
1310.0 345 418 497 568 618 644 656 633 578 516
1350.0 455 410 395 405 452 516 579 637 674 703
1390.0 674 594 504 401 308 239 202 193 212 257
1430.0 330 431 551 680 808 942 1116 1198 1129 1086
1470.0 1012 884 769 647 520 401 302 232 182 143
1510.0 118 105 94 83 75 71 66 64 62 65
1550.0 65 64 63 60 58 60 57 53 48 43
1590.0 46 43 41 42 43 44 45 47 48 47
1630.0 48 47 45 44 42 39 38 40 43 42
1670.0 39 37 38 35 32 30 28 22 17 18
1710.0 23 24 20 17 17 14 12 12 14 12
1750.0 11 9 9 11 13 13 10 10 15 17
1790.0 18 14 12 14 14 10 9 11 9 12
1830.0 16 18 17 15 17 19 15 11 13 15
1870.0 17 15 15 19 14 13 15 13 13 9
1910.0 6 7 9 9 13 11 6 8 10 7
1950.0 7 8 7 6 3 3 7 6 5 4
1990.0 2 5 7 5 3 5 5 1 0 2
2030.0 2 4 2 2 7 13 19 18 20 27
2070.0 35 49 67 96 129 168 215 264 305 334
2110.0 353 358 341 312 263 205 147 94 60 42
2150.0 33 25 18 15 15 12 10 13 12 13
2190.0 15 18 17 21 24 20 14 14 12 10
2230.0 15 17 15 12 13 10 9 12 15 16
2270.0 15 19 23 22 23 23 19 19 22 26
2310.0 22 23 27 23 26 29 30 34 32 34
2350.0 32 34 39 41 41 39 33 32 40 43
2390.0 38 35 36 40 39 37 43 42 34 36
2430.0 37 35 36 39 36 38 39 38 37 39
2470.0 37 31 33 32 33 32 34 41 43 39
2510.0 34 35 41 44 47 51 53 57 56 57
2550.0 65 69 67 68 69 71 70 66 67 63
2590.0 61 65 69 70 69 71 67 66 69 68
2630.0 69 72 72 75 75 79 82 85 97 103
2670.0 103 98 97 104 118 129 128 126 119 111
2710.0 110 118 123 129 140 147 148 155 161 162
2750.0 170 172 170 172 179 192 195 193 199 203
2790.0 209 221 229 236 245 264 275 283 297 318
2830.0 352 384 418 478 570 698 872 1092 1346 1658
2870.0 2053 2425 2684 2842 3046 3219 3110 2988 2905 2770
2910.0 2745 2872 3135 3503 3928 4426 4937 5157 5170 5185
2950.0 5177 5222 5380 5692 6310 6978 7249 7147 6825 6349
2990.0 5474 4455 3412 2387 1598 1083 784 602 496 427
3030.0 376 346 323 305 294 287 286 283 273 270
3070.0 271 271 268 260 248 232 217 207 198 199
3110.0 202 201 197 189 189 193 187 177 171 167
3150.0 161 161 163 169 178 173 170 170 166 159
3190.0 149 134 128 119 103 96 90 90 96 103
3230.0 100 94 102 106 104 113 132 153 174 212
3270.0 273 345 410 486 623 813 1047 1250 1432 1775
3310.0 2248 2785 3086 3021 3001 2846 2698 2568 2008 1308
3350.0 823 551 406 307 228 172 121 94 82 66
3390.0 58 47 44 51 49 40 39 32 27 22
3430.0 20 28 24 19 28 30 35 35 27 27
3470.0 33 39 34 27 32 41 38 23 22 32
3510.0 27 29 23 26 25 13 17 16 16 18
3550.0 20 18 19 25 30 28 28 31 20 17
3590.0 21 22 20 11 11 14 16 12 7 13
3630.0 19 15 19 18 8 9 15 17 19 20
3670.0 19 15 17 25 30 29 24 26 32 34
3710.0 31 29 40 47 45 49 48 37 32 36
3750.0 38 32 30 30 29 33 42 43 46 57
3790.0 57 42 36 37 36 33 34 41 41 43
3830.0 57 52 38 47 51
##END=
