##TITLE=2-Chloro-2-propen-1-ol
##JCAMP-DX=4.24
##DATA TYPE=INFRARED SPECTRUM
##ORIGIN=NIST Mass Spectrometry Data Center
##OWNER=NIST Standard Reference Data Program
Collection (C) 2009 copyright by the U.S. Secretary of Commerce
on behalf of the United States of America. All rights reserved.
##CAS REGISTRY NO=5976-47-6
##MOLFORM=C 3 H 5 Cl O
##$NIST SOURCE=MSDC-IR
##SPECTROMETER/DATA SYSTEM=HP-GC/MS/IRD
##STATE=gas
##XUNITS=1/CM
##YUNITS=ABSORBANCE
##XFACTOR=1.0
##YFACTOR=0.000001100
##DELTAX=4.0
##FIRSTX=550.0
##LASTX=3846.0
##FIRSTY=0.000604
##MAXX=3846
##MINX=550
##MAXY=0.011
##MINY=0
##NPOINTS=825
##XYDATA=(X++(Y..Y))
550.0 549 317 172 212 216 252 290 396 389 378
590.0 376 387 451 438 532 723 880 1079 1309 1468
630.0 1627 1713 1694 1686 1618 1370 1059 779 592 467
670.0 343 364 433 473 580 710 868 1118 1384 1633
710.0 1728 1683 1677 1659 1513 1237 888 529 269 183
750.0 154 64 23 17 10 9 5 18 18 24
790.0 50 43 34 70 110 114 111 110 122 168
830.0 200 191 181 206 293 387 548 788 1111 1443
870.0 1812 2196 2573 3215 3926 4564 4793 3877 3090 2883
910.0 2736 2400 1857 1454 1188 1006 866 768 763 803
950.0 864 955 1030 1110 1203 1241 1242 1248 1248 1208
990.0 1165 1170 1242 1402 1644 2003 2508 3246 4263 5469
1030.0 6810 8075 9040 9739 10000 9584 8980 8145 6723 4984
1070.0 3377 2239 1569 1151 892 717 583 527 530 537
1110.0 547 575 629 732 887 1057 1225 1393 1580 1737
1150.0 1861 1966 2017 1980 1917 1861 1814 1759 1745 1729
1190.0 1688 1701 1763 1801 1815 1794 1740 1674 1638 1558
1230.0 1443 1346 1225 1134 1053 1010 956 922 906 881
1270.0 883 860 828 814 814 829 825 816 810 818
1310.0 824 819 847 898 925 982 1073 1148 1225 1307
1350.0 1379 1456 1564 1644 1715 1784 1829 1871 1867 1812
1390.0 1772 1738 1706 1654 1530 1402 1298 1181 1109 1048
1430.0 951 863 755 667 625 587 547 535 514 490
1470.0 478 436 368 286 213 169 151 122 106 94
1510.0 73 66 68 72 61 63 76 89 89 85
1550.0 87 101 99 104 142 174 186 216 280 342
1590.0 383 453 582 735 932 1196 1487 1783 2089 2414
1630.0 2652 2759 2789 2770 2644 2390 2078 1741 1330 911
1670.0 597 397 276 189 115 82 69 69 58 49
1710.0 53 56 64 63 63 60 60 62 67 73
1750.0 73 72 87 117 153 190 212 229 240 236
1790.0 222 229 224 210 194 147 112 83 61 56
1830.0 50 48 51 57 53 31 24 24 36 43
1870.0 30 25 29 24 6 14 30 24 22 28
1910.0 23 17 21 34 31 11 8 19 34 39
1950.0 20 13 21 32 35 25 24 35 42 26
1990.0 29 42 24 24 33 41 52 41 38 57
2030.0 60 39 54 71 75 83 88 96 101 106
2070.0 110 126 138 118 113 117 97 91 93 75
2110.0 47 51 62 48 38 51 76 71 40 32
2150.0 39 41 41 42 42 41 38 32 37 36
2190.0 35 42 35 30 29 29 22 22 26 30
2230.0 30 17 17 29 37 30 24 37 45 54
2270.0 46 31 52 62 56 59 54 41 38 39
2310.0 39 58 59 33 17 20 47 47 31 29
2350.0 36 51 43 47 51 41 36 58 70 41
2390.0 29 53 57 43 45 63 66 64 55 67
2430.0 71 65 61 51 35 23 26 24 48 56
2470.0 37 46 54 50 50 42 31 39 39 51
2510.0 74 69 56 54 48 32 38 60 60 53
2550.0 54 43 43 61 59 44 39 39 32 29
2590.0 37 48 67 55 13 19 57 69 55 45
2630.0 47 41 58 85 72 58 58 64 86 83
2670.0 66 80 72 57 80 91 108 100 65 58
2710.0 84 88 86 110 105 87 86 89 93 99
2750.0 101 103 128 151 136 123 129 140 152 165
2790.0 158 127 161 198 180 189 223 251 271 288
2830.0 308 340 390 435 500 589 708 847 990 1140
2870.0 1291 1409 1456 1448 1357 1294 1312 1280 1248 1247
2910.0 1281 1364 1524 1676 1751 1771 1767 1740 1692 1609
2950.0 1495 1354 1191 1068 938 813 720 630 531 434
2990.0 358 303 263 247 207 195 210 202 186 172
3030.0 171 175 167 169 161 129 108 88 75 68
3070.0 66 71 67 69 74 78 75 126 178 187
3110.0 203 214 225 226 197 143 129 114 43 0
3150.0 31 47 33 23 17 30 39 42 37 27
3190.0 13 29 68 75 45 56 71 58 47 29
3230.0 17 32 63 77 39 5 46 85 73 51
3270.0 44 57 64 71 74 81 61 63 94 96
3310.0 62 62 51 46 71 69 76 79 71 89
3350.0 115 91 69 64 86 111 105 101 115 141
3390.0 141 105 92 101 115 105 116 134 117 133
3430.0 138 98 84 114 114 125 133 145 165 140
3470.0 110 97 91 67 66 76 87 93 94 104
3510.0 142 125 108 107 121 159 125 138 168 159
3550.0 152 143 144 157 168 169 175 175 181 195
3590.0 209 248 274 290 346 417 535 643 760 939
3630.0 1087 1212 1343 1510 1695 1803 1816 1787 1660 1512
3670.0 1381 1227 1017 807 659 553 443 340 301 297
3710.0 288 280 240 216 228 230 211 190 198 190
3750.0 165 159 128 84 79 108 137 167 155 133
3790.0 128 102 69 71 74 78 90 130 201 192
3830.0 161 152 149 140 156
##END=
