##TITLE=3-Pentenenitrile
##JCAMP-DX=4.24
##DATA TYPE=INFRARED SPECTRUM
##ORIGIN=EPA-IR VAPOR PHASE LIBRARY
##OWNER=SRD/NIST
Collection (C) 2009 copyright by the U.S. Secretary of Commerce
on behalf of the United States of America. All rights reserved.
##CAS REGISTRY NO=4635-87-4
##MOLFORM=C 5 H 7 N
##$NIST SOURCE=MSDC-IR
##STATE=gas
##XUNITS=1/CM
##YUNITS=ABSORBANCE
##XFACTOR=1.
##YFACTOR=0.001
##DELTAX=1.92898
##FIRSTX=549.8
##LASTX=4000.7
##FIRSTY=0.077
##MAXX=4000.7
##MINX=549.759
##MAXY=0.012929
##MINY=0
##NPOINTS=1790
##XYDATA=(X++(Y..Y))
549.759 0.077 0.125 0.075 0.298 0.3163 0 0.051 0.161 0.228 0.40404
569.049 0.50807 0.46328 0.231 0.266 0.284 0.238 0.277 0.307 0.3206 0.42954
588.339 0.5451 0.3376 0.3127 0.47634 0.44803 0.43958 0.47826 0.47266 0.3577 0.22
607.628 0.306 0.234 0.088 0.225 0.3109 0.127 0.109 0.229 0.191 0.213
626.918 0.5371 0.6226 0.3703 0.204 0.21 0.263 0.286 0.3834 0.3919 0.3559
646.208 0.3258 0.3771 0.47824 0.45856 0.418405 0.282 0.29 0.50501 0.5779 0.6403
665.498 0.5972 0.49492 0.6162 0.6742 0.5436 0.5944 0.49405 0.46731 0.5927 0.7617
684.787 0.9346 0.8242 0.7476 0.863 0.9824 0.9668 0.9506 1.0265 0.9878 0.9603
704.077 0.8496 0.7663 0.8245 0.7479 0.7271 0.7721 0.792 0.8035 0.7465 0.6695
723.367 0.7276 0.6187 0.5197 0.7268 0.7747 0.6251 0.43751 0.48769 0.653 0.5299
742.657 0.49993 0.5621 0.6287 0.6116 0.5264 0.46889 0.3672 0.3309 0.308 0.308
761.947 0.5237 0.5705 0.3777 0.4291 0.6227 0.6626 0.6092 0.46316 0.41442 0.42511
781.236 0.46821 0.6115 0.5859 0.5729 0.48418 0.47521 0.572 0.65 0.7221 0.6643
800.526 0.5744 0.5767 0.632 0.47401 0.42475 0.6232 0.6813 0.6798 0.7518 0.6721
819.816 0.6474 0.7057 0.7013 0.8292 0.8691 0.7851 0.8285 0.7987 0.7888 0.85
839.106 0.9286 1.0075 0.929 0.9463 1.0146 0.9525 0.8189 0.7788 0.8484 1.022
858.395 1.1816 1.1066 1.0317 1.0934 1.1515 1.1982 1.2243 1.2332 1.2951 1.3354
877.685 1.429 1.449 1.3546 1.3383 1.3359 1.3215 1.469 1.639 1.659 1.629
896.975 1.749 1.869 1.969 2.019 1.999 2.149 2.369 2.489 2.669 2.969
916.265 3.069 3.359 3.619 3.849 4.089 4.399 4.959 5.329 5.759 6.219
935.555 6.619 7.219 7.929 8.529 9.079 9.699 10.189 10.679 11.139 11.529
954.844 11.869 12.119 12.379 12.539 12.709 12.899 12.929 12.169 11.099 10.479
974.134 9.979 9.439 8.809 8.249 7.819 7.189 6.629 6.149 5.639 5.319
993.424 4.879 4.289 3.909 3.739 3.389 2.969 2.709 2.529 2.499 2.619
1012.714 2.329 2.039 2.109 2.129 2.119 2.079 2.029 1.829 1.719 1.889
1032.003 2.049 2.079 1.849 1.839 2.059 2.029 1.989 2.079 2.199 2.109
1051.293 2.149 2.329 2.399 2.249 2.119 1.899 1.589 1.969 1.989 1.759
1070.583 1.849 1.729 1.609 1.3765 0.8836 0.9436 1.271 0.8696 0.7613 1.0883
1089.873 0.6466 0.42319 0.6931 0.7274 1.038 1.1125 0.6465 0.221 0.3528 0.6796
1109.163 0.49268 0.5235 0.46779 0.217 0.46074 0.6731 0.6848 0.7249 0.649 0.3833
1128.452 0.44898 0.5468 0.3781 0.3651 0.5429 0.417109 0.071 0.06 0.304 0.49141
1147.742 0.416573 0.6974 0.9824 0.6891 0.6293 0.50319 0.259 0.5262 0.6762 0.45343
1167.032 0.44276 0.46138 0.45966 0.7029 0.8474 0.6653 0.5517 0.617 0.6361 0.5353
1186.322 0.346 0.3626 0.5155 0.5966 0.7345 0.8959 0.9794 0.8619 0.7125 0.7069
1205.611 0.7166 0.7398 0.8212 0.9625 0.6379 0.5794 0.8212 0.5659 0.539 0.6959
1224.901 0.8994 0.936 0.8665 0.8705 0.7095 0.6988 0.8829 0.8568 0.7864 0.8869
1244.191 0.9598 0.9585 0.9176 1.152 1.1914 0.9572 0.9831 1.1768 1.2567 1.3883
1263.481 1.619 1.789 2.029 2.109 1.999 1.919 2.039 2.169 2.239 2.229
1282.771 2.119 2.069 1.989 1.869 1.879 1.829 1.719 1.709 1.679 1.639
1302.060 1.669 1.689 1.679 1.719 1.769 1.739 1.709 1.689 1.709 1.729
1321.350 1.719 1.699 1.689 1.669 1.609 1.559 1.499 1.449 1.3789 1.3157
1340.640 1.3531 1.4061 1.3915 1.3488 1.3361 1.3567 1.3484 1.279 1.2714 1.2654
1359.930 1.2514 1.3424 1.3763 1.419 1.519 1.529 1.559 1.689 1.809 1.899
1379.219 1.939 2.049 2.219 2.319 2.379 2.469 2.559 2.649 2.789 2.889
1398.509 2.989 3.059 3.139 3.259 3.369 3.539 3.759 3.979 4.229 4.489
1417.799 4.709 4.889 5.039 5.029 4.909 4.929 5.069 5.179 5.299 5.409
1437.089 5.459 5.399 5.309 5.279 5.149 4.939 4.739 4.549 4.339 4.189
1456.378 4.029 3.899 3.769 3.679 3.599 3.449 3.319 3.129 3.009 2.879
1475.668 2.719 2.579 2.429 2.319 2.219 2.149 2.029 1.899 1.819 1.719
1494.958 1.659 1.629 1.579 1.479 1.3787 1.3716 1.3582 1.2788 1.2808 1.2396
1514.248 1.191 1.221 1.1786 1.1084 1.126 1.1324 1.0769 1.0199 1.0069 1.0377
1533.538 1.0228 0.982 0.9611 0.907 0.9187 0.9104 0.8949 0.929 0.9357 0.9191
1552.827 0.9412 0.9469 0.8932 0.9103 0.893 0.8742 0.872 0.8703 0.9196 0.898
1572.117 0.8428 0.8455 0.8449 0.7629 0.7403 0.7877 0.7853 0.7505 0.7568 0.7499
1591.407 0.7292 0.6543 0.641 0.7062 0.6841 0.6538 0.6574 0.6398 0.6007 0.6498
1610.697 0.6399 0.6533 0.6875 0.6765 0.6597 0.6881 0.7304 0.7515 0.8529 0.8589
1629.986 0.7906 0.8067 0.8347 0.8861 0.9055 0.8662 0.8457 0.8276 0.8014 0.8699
1649.276 0.888 0.8668 0.877 0.8094 0.8327 0.8539 0.8946 1.0341 1.0009 0.9929
1668.566 1.0536 1.0171 1.0228 1.0676 1.1229 1.1342 1.0681 1.0251 1.1007 1.1172
1687.856 1.0245 1.0501 1.124 1.1039 1.0825 1.094 1.1065 1.097 1.0208 0.967
1707.146 1.0135 1.0099 0.9693 0.9755 0.9803 0.9011 0.9048 0.8649 0.7637 0.7419
1726.435 0.7196 0.7423 0.7164 0.6603 0.6388 0.6254 0.6237 0.6238 0.5935 0.5718
1745.725 0.5724 0.5269 0.48848 0.5329 0.5855 0.595 0.5446 0.5372 0.5743 0.5633
1765.015 0.5584 0.5628 0.5737 0.5749 0.5748 0.5868 0.5319 0.50623 0.5233 0.5395
1784.305 0.555 0.5499 0.5779 0.5811 0.5583 0.5667 0.5548 0.5578 0.564 0.5292
1803.594 0.514 0.5338 0.5407 0.49088 0.4853 0.49989 0.46985 0.45524 0.4675 0.49395
1822.884 0.45738 0.42952 0.49124 0.5316 0.47751 0.43934 0.49695 0.5144 0.5305 0.568
1842.174 0.5523 0.5203 0.5464 0.5506 0.5107 0.523 0.536 0.5847 0.5832 0.5549
1861.464 0.50727 0.45845 0.49745 0.5276 0.5288 0.50386 0.47745 0.47108 0.47493 0.49633
1880.754 0.5297 0.5374 0.5326 0.50579 0.5275 0.5778 0.56 0.47498 0.46919 0.5137
1900.043 0.5114 0.49214 0.50337 0.546 0.5389 0.49741 0.49424 0.5273 0.50531 0.44436
1919.333 0.44353 0.45752 0.47419 0.5236 0.50149 0.44111 0.48799 0.50832 0.4224 0.4077
1938.623 0.427 0.43638 0.45492 0.48554 0.50455 0.4764 0.44545 0.47119 0.48431 0.46282
1957.913 0.46697 0.44651 0.412528 0.44611 0.48483 0.43106 0.416378 0.46915 0.45773 0.4725
1977.202 0.49546 0.45636 0.4524 0.5159 0.5215 0.4817 0.48826 0.49954 0.536 0.537
1996.492 0.5352 0.5463 0.5391 0.538 0.5202 0.53 0.5148 0.48276 0.5101 0.50885
2015.782 0.48707 0.44483 0.417326 0.44964 0.46324 0.42941 0.395 0.3911 0.3909 0.3853
2035.072 0.409031 0.43522 0.43037 0.40204 0.412617 0.413816 0.3924 0.43495 0.45198 0.3863
2054.362 0.3316 0.3422 0.344 0.3544 0.3694 0.353 0.3702 0.417541 0.3821 0.3387
2073.651 0.3428 0.384 0.4036 0.3142 0.298 0.3695 0.3933 0.3675 0.3825 0.42868
2092.941 0.3922 0.3917 0.396 0.3435 0.374 0.3811 0.3484 0.3758 0.41614 0.41984
2112.231 0.42235 0.3987 0.3727 0.3732 0.3327 0.3837 0.45904 0.45741 0.44152 0.3894
2131.521 0.3687 0.3797 0.3823 0.43486 0.47034 0.4603 0.414013 0.3957 0.43879 0.43003
2150.810 0.3912 0.411426 0.45773 0.42149 0.3548 0.3482 0.3909 0.3937 0.412055 0.43008
2170.100 0.46539 0.48782 0.4385 0.3882 0.39901 0.40755 0.345 0.3798 0.43487 0.40605
2189.390 0.40552 0.41951 0.42649 0.46841 0.4506 0.43728 0.434 0.45063 0.49205 0.43268
2208.680 0.415137 0.47609 0.5253 0.5275 0.5205 0.5741 0.6243 0.6664 0.7022 0.6808
2227.970 0.6685 0.7201 0.8046 0.8637 0.9047 0.9537 0.9723 1.052 1.0826 1.12
2247.259 1.2646 1.2802 1.2394 1.2763 1.2749 1.2467 1.2477 1.1899 1.1806 1.211
2266.549 1.1639 1.0832 0.9664 0.7934 0.708 0.6676 0.594 0.5978 0.5798 0.5354
2285.839 0.48684 0.43953 0.43362 0.43405 0.43543 0.47734 0.48604 0.43394 0.44381 0.47072
2305.129 0.43255 0.3891 0.45727 0.5273 0.48273 0.48374 0.47828 0.48385 0.5465 0.5461
2324.418 0.5113 0.48175 0.50789 0.581 0.5815 0.5367 0.5469 0.6032 0.6649 0.6627
2343.708 0.6205 0.5535 0.547 0.5751 0.5651 0.5983 0.6317 0.577 0.5749 0.6248
2362.998 0.6768 0.682 0.585 0.582 0.6381 0.6011 0.5677 0.5889 0.5441 0.50464
2382.288 0.5144 0.5245 0.5208 0.5568 0.5821 0.5528 0.5349 0.4904 0.49091 0.50228
2401.578 0.48869 0.46384 0.46695 0.50634 0.5166 0.5311 0.5446 0.48622 0.4512 0.486
2420.867 0.49601 0.48047 0.48088 0.5303 0.5398 0.5388 0.5452 0.5152 0.5147 0.5946
2440.157 0.579 0.45117 0.412564 0.45177 0.45976 0.5199 0.578 0.5489 0.4754 0.45512
2459.447 0.49251 0.5071 0.50879 0.46208 0.48488 0.5388 0.5108 0.45889 0.4333 0.47674
2478.737 0.5619 0.5442 0.48923 0.47264 0.45839 0.46573 0.48407 0.48091 0.48617 0.45174
2498.026 0.43981 0.43811 0.414771 0.46011 0.5164 0.45413 0.329 0.3712 0.44413 0.44977
2517.316 0.45447 0.411447 0.43195 0.5213 0.5091 0.44815 0.414041 0.414058 0.48563 0.5314
2536.606 0.45756 0.45851 0.5813 0.5537 0.48459 0.5115 0.49842 0.50371 0.5608 0.5563
2555.896 0.5137 0.49825 0.46889 0.43095 0.42853 0.5211 0.57 0.5453 0.5118 0.43959
2575.186 0.42942 0.43797 0.44488 0.5804 0.6427 0.573 0.5497 0.5379 0.5328 0.5427
2594.475 0.5479 0.5501 0.5582 0.5353 0.50792 0.5497 0.5831 0.522 0.5147 0.5622
2613.765 0.5725 0.5109 0.44846 0.43792 0.47079 0.5155 0.49223 0.47663 0.46948 0.45014
2633.055 0.50414 0.514 0.42639 0.43577 0.46393 0.4157 0.3881 0.3691 0.3877 0.4421
2652.345 0.43809 0.40754 0.3677 0.3561 0.40434 0.47753 0.48603 0.49683 0.5112 0.49236
2671.634 0.50032 0.5181 0.49344 0.49842 0.5204 0.5152 0.43158 0.3584 0.46103 0.5865
2690.924 0.6466 0.6054 0.5831 0.6026 0.565 0.5363 0.48189 0.48054 0.5471 0.5777
2710.214 0.5477 0.5631 0.6354 0.5815 0.5559 0.6377 0.6609 0.5918 0.6355 0.6711
2729.504 0.6782 0.7232 0.7572 0.7571 0.7101 0.7301 0.8392 0.8509 0.7772 0.7879
2748.794 0.8751 0.884 0.8861 0.9898 0.9981 0.922 0.839 0.8141 0.7295 0.6631
2768.083 0.7328 0.7535 0.7188 0.7213 0.7456 0.6658 0.6673 0.7398 0.7217 0.7212
2787.373 0.7697 0.8561 0.8293 0.7646 0.7796 0.7605 0.7898 0.873 0.902 0.9349
2806.663 0.9198 0.8862 0.9644 1.0139 1.0142 1.0425 1.0801 1.1085 1.1817 1.243
2825.953 1.2858 1.3929 1.559 1.659 1.639 1.639 1.669 1.769 1.859 1.939
2845.242 2.039 2.169 2.299 2.409 2.579 2.859 3.109 3.289 3.579 3.839
2864.532 4.059 4.229 4.379 4.429 4.519 4.659 4.829 4.989 4.979 4.969
2883.822 5.089 5.029 4.909 4.979 5.039 4.959 4.929 5.039 5.029 5.059
2903.112 5.259 5.429 5.739 6.109 6.479 6.919 7.379 8.039 8.779 9.529
2922.401 10.259 10.939 11.459 11.719 11.819 11.959 12.119 12.059 12.029 12.169
2941.691 12.009 11.549 10.989 10.239 9.569 9.149 8.859 8.759 8.779 8.749
2960.981 8.619 8.539 8.539 8.529 8.629 8.679 8.619 8.499 8.329 8.259
2980.271 8.209 8.059 7.899 7.679 7.459 7.329 7.069 6.859 6.659 6.299
2999.561 6.019 5.809 5.649 5.579 5.509 5.429 5.369 5.329 5.309 5.379
3018.850 5.439 5.449 5.559 5.629 5.769 5.999 6.109 6.239 6.339 6.379
3038.140 6.349 6.309 6.259 6.219 6.099 5.959 5.909 5.689 5.459 5.349
3057.430 4.929 4.479 4.149 3.799 3.579 3.349 3.149 2.989 2.849 2.749
3076.720 2.609 2.419 2.239 2.109 2.029 1.979 1.869 1.739 1.629 1.649
3096.009 1.669 1.599 1.559 1.559 1.489 1.439 1.449 1.439 1.3634 1.2649
3115.299 1.2535 1.2035 1.1635 1.1779 1.1216 1.0764 1.1512 1.1629 1.0709 1.0176
3134.589 1.09 1.033 0.947 0.9363 0.9443 0.9479 0.9051 0.9163 0.8744 0.9339
3153.879 0.9099 0.7748 0.7286 0.6725 0.7143 0.7388 0.7562 0.7653 0.7242 0.7721
3173.169 0.8073 0.7971 0.8188 0.8544 0.8566 0.8939 0.8633 0.7218 0.7144 0.7536
3192.458 0.694 0.6905 0.6777 0.6892 0.652 0.5951 0.5884 0.591 0.5733 0.5944
3211.748 0.6394 0.5154 0.47444 0.5193 0.5158 0.50348 0.5549 0.4635 0.3099 0.4578
3231.038 0.546 0.3766 0.3399 0.45239 0.40044 0.3822 0.46031 0.47363 0.47627 0.5329
3250.328 0.5671 0.5316 0.47686 0.414442 0.4024 0.3858 0.3604 0.3713 0.415064 0.5103
3269.617 0.5314 0.50037 0.48472 0.4486 0.37 0.3742 0.45029 0.476 0.46837 0.43235
3288.907 0.389 0.42114 0.5504 0.50299 0.3764 0.3849 0.3417 0.3729 0.4994 0.4928
3308.197 0.49622 0.46094 0.3404 0.297 0.283 0.279 0.3486 0.3742 0.45257 0.43005
3327.487 0.3241 0.3772 0.42985 0.4628 0.40041 0.3557 0.46319 0.50167 0.43775 0.3542
3346.777 0.43719 0.47908 0.3836 0.3878 0.351 0.228 0.232 0.3722 0.3959 0.3594
3366.066 0.3744 0.47199 0.44477 0.3151 0.304 0.261 0.15 0.249 0.42745 0.3909
3385.356 0.40467 0.46332 0.47771 0.5103 0.45971 0.42863 0.49194 0.5138 0.42675 0.3469
3404.646 0.3803 0.44521 0.40649 0.3681 0.40475 0.43284 0.48748 0.41134 0.3403 0.3139
3423.936 0.337 0.4519 0.42154 0.43204 0.3844 0.297 0.3949 0.414982 0.364 0.40672
3443.225 0.397 0.47025 0.43196 0.3385 0.43323 0.3958 0.3173 0.3827 0.3893 0.3547
3462.515 0.40753 0.47535 0.46992 0.3372 0.3926 0.49828 0.5127 0.5969 0.5194 0.344
3481.805 0.3359 0.42464 0.42515 0.3485 0.3721 0.44651 0.48011 0.5682 0.412477 0.3181
3501.095 0.40265 0.3372 0.3608 0.48435 0.45677 0.40882 0.5092 0.42428 0.3718 0.3854
3520.385 0.329 0.3532 0.3444 0.45288 0.5786 0.6161 0.5119 0.50063 0.5721 0.50242
3539.674 0.5097 0.5236 0.49058 0.5339 0.5448 0.3938 0.3 0.3569 0.42586 0.383
3558.964 0.43073 0.42977 0.227 0.193 0.3214 0.382 0.47838 0.5372 0.545 0.5238
3578.254 0.46821 0.5368 0.6468 0.5593 0.3848 0.39916 0.46502 0.5536 0.5524 0.3723
3597.544 0.294 0.296 0.263 0.3269 0.42427 0.3863 0.388 0.3984 0.389 0.417672
3616.833 0.356 0.307 0.304 0.3347 0.294 0.241 0.273 0.46539 0.42102 0.293
3636.123 0.4617 0.5329 0.5268 0.43547 0.28 0.3664 0.47433 0.43549 0.48288 0.49617
3655.413 0.50282 0.42073 0.3406 0.3931 0.418004 0.45334 0.50024 0.40174 0.3894 0.49803
3674.703 0.5265 0.49027 0.3816 0.3813 0.46172 0.44008 0.46693 0.5124 0.5687 0.547
3693.993 0.417781 0.408473 0.415685 0.3299 0.3403 0.3743 0.299 0.24 0.206 0.303
3713.282 0.3473 0.294 0.3733 0.3753 0.3189 0.3336 0.3555 0.388 0.3241 0.46809
3732.572 0.5401 0.3225 0.269 0.3551 0.46582 0.40093 0.3331 0.336 0.3676 0.47062
3751.862 0.5701 0.5726 0.50561 0.5225 0.49956 0.42326 0.3944 0.3924 0.417063 0.50547
3771.152 0.43097 0.3711 0.47503 0.47649 0.351 0.3234 0.3462 0.3982 0.45058 0.42894
3790.441 0.3653 0.3293 0.47253 0.5578 0.46392 0.4646 0.593 0.6154 0.5491 0.46968
3809.731 0.45442 0.417512 0.44761 0.5817 0.5861 0.5823 0.42394 0.235 0.3378 0.43785
3829.021 0.410114 0.3219 0.3694 0.42369 0.3 0.209 0.25 0.286 0.3735 0.5494
3848.311 0.6708 0.638 0.5173 0.45303 0.48514 0.47106 0.48379 0.47154 0.45421 0.43844
3867.601 0.47911 0.5485 0.44007 0.3627 0.3778 0.45713 0.5162 0.5461 0.6242 0.5562
3886.890 0.5211 0.49327 0.3696 0.3737 0.3348 0.39937 0.43861 0.499 0.49938 0.3665
3906.180 0.3688 0.3717 0.3728 0.3804 0.3904 0.45745 0.6161 0.6372 0.47655 0.3863
3925.470 0.43003 0.50889 0.42982 0.40149 0.422 0.3424 0.42218 0.5696 0.47669 0.3519
3944.760 0.3908 0.50517 0.5281 0.5304 0.5608 0.50384 0.5648 0.66 0.49988 0.3222
3964.049 0.40583 0.5355 0.5575 0.5433 0.5489 0.5238 0.3634 0.47525 0.627 0.5292
3983.339 0.5539 0.48479 0.3616 0.43735 0.49733 0.408906 0.49434 0.688 0.6771 0.5172
##END=
