##TITLE=Methyl propiolate
##JCAMP-DX=4.24
##DATA TYPE=INFRARED SPECTRUM
##ORIGIN=NIST Mass Spectrometry Data Center
##OWNER=NIST Standard Reference Data Program
Collection (C) 2009 copyright by the U.S. Secretary of Commerce
on behalf of the United States of America. All rights reserved.
##CAS REGISTRY NO=922-67-8
##MOLFORM=C 4 H 4 O 2
##$NIST SOURCE=MSDC-IR
##SPECTROMETER/DATA SYSTEM=HP-GC/MS/IRD
##STATE=gas
##XUNITS=1/CM
##YUNITS=ABSORBANCE
##XFACTOR=1.0
##YFACTOR=0.000024300
##DELTAX=4.0
##FIRSTX=550.0
##LASTX=3846.0
##FIRSTY=0.000753
##MAXX=3846
##MINX=550
##MAXY=0.243
##MINY=0
##NPOINTS=825
##XYDATA=(X++(Y..Y))
550.0 31 45 36 31 22 17 23 39 58 71
590.0 73 76 89 94 90 88 93 108 144 207
630.0 303 414 491 513 536 811 1225 1194 990 914
670.0 820 703 673 652 664 668 480 330 253 213
710.0 189 176 176 186 202 232 269 304 337 368
750.0 464 663 646 461 405 389 355 308 248 191
790.0 146 112 90 77 72 78 94 118 146 183
830.0 236 301 365 405 414 397 389 410 420 373
870.0 289 211 155 116 85 60 43 31 20 13
910.0 6 2 0 1 0 0 0 0 4 4
950.0 6 10 14 23 38 59 91 133 184 237
990.0 282 310 326 339 341 325 289 233 183 148
1030.0 128 120 124 123 117 107 100 100 105 107
1070.0 107 107 105 108 115 124 140 160 183 206
1110.0 220 224 226 234 242 240 234 232 246 269
1150.0 297 334 382 445 530 636 755 887 1043 1240
1190.0 1507 1871 2359 3004 3844 4895 6137 7474 8706 9605
1230.0 10000 9880 9373 8593 7591 6121 4329 2847 1912 1388
1270.0 1083 894 768 675 593 527 488 456 412 367
1310.0 332 314 308 307 310 303 279 251 228 205
1350.0 176 154 149 164 180 183 183 187 194 194
1390.0 189 179 172 171 175 187 215 269 356 463
1430.0 557 622 663 691 710 641 506 379 290 229
1470.0 193 173 157 144 133 124 118 114 110 103
1510.0 96 95 95 93 90 85 82 79 78 79
1550.0 79 77 75 74 75 74 75 73 71 69
1590.0 69 67 61 55 50 46 41 38 37 35
1630.0 34 32 31 32 31 33 35 40 45 53
1670.0 65 82 103 133 177 236 315 423 570 769
1710.0 1039 1382 1820 2376 3071 3848 4465 4554 4077 3846
1750.0 4470 4952 4416 3402 2503 1831 1322 915 592 365
1790.0 221 136 90 66 53 47 41 37 35 35
1830.0 36 36 37 36 36 36 34 31 29 27
1870.0 23 20 19 18 19 22 25 27 24 21
1910.0 22 22 20 18 16 14 15 15 14 15
1950.0 16 19 22 23 27 31 33 35 37 38
1990.0 37 37 36 33 29 24 23 22 23 25
2030.0 27 30 36 42 48 55 62 71 81 91
2070.0 103 117 137 162 197 248 320 416 536 676
2110.0 822 958 1058 1108 1103 1049 949 807 626 427
2150.0 245 124 66 41 30 24 19 16 14 12
2190.0 11 10 10 10 9 10 10 9 10 11
2230.0 12 13 13 13 15 14 15 17 18 21
2270.0 22 23 22 23 22 22 22 20 19 16
2310.0 14 13 13 12 11 12 13 11 10 9
2350.0 10 12 14 15 16 15 14 13 10 9
2390.0 9 9 10 10 11 13 15 15 17 20
2430.0 22 24 25 27 30 31 31 30 29 27
2470.0 26 23 20 16 11 7 6 5 3 2
2510.0 2 3 1 0 0 0 0 0 1 3
2550.0 4 4 2 4 6 8 9 10 12 13
2590.0 14 17 17 18 17 16 16 15 14 15
2630.0 14 15 15 16 18 17 18 20 18 15
2670.0 16 16 13 13 12 10 7 6 6 7
2710.0 7 8 7 7 8 8 6 4 4 6
2750.0 5 4 5 5 4 5 2 0 2 2
2790.0 4 5 5 6 9 10 13 19 24 31
2830.0 44 59 75 86 91 95 93 95 92 75
2870.0 59 53 53 56 63 70 79 89 99 109
2910.0 116 118 119 118 121 128 141 170 225 316
2950.0 432 523 552 567 569 563 558 479 366 276
2990.0 228 210 204 208 226 228 214 206 203 202
3030.0 198 183 166 155 147 135 117 100 86 75
3070.0 67 61 58 56 55 52 51 51 48 47
3110.0 45 42 39 38 35 32 31 28 26 25
3150.0 24 22 20 19 19 19 21 21 18 17
3190.0 17 13 11 11 10 10 10 9 7 6
3230.0 5 7 11 13 15 19 25 30 35 46
3270.0 65 88 106 124 166 231 314 368 413 526
3310.0 685 869 909 824 775 719 738 662 422 215
3350.0 104 59 38 27 23 19 15 12 13 13
3390.0 10 10 12 13 14 15 14 15 17 22
3430.0 24 27 32 40 46 54 63 70 76 78
3470.0 77 76 77 75 64 52 43 34 30 25
3510.0 22 18 16 15 13 13 12 9 8 6
3550.0 7 6 6 7 6 5 4 5 7 7
3590.0 5 6 7 7 5 4 3 3 4 3
3630.0 3 2 2 3 1 2 3 5 6 5
3670.0 4 3 2 1 0 0 2 1 0 2
3710.0 2 1 0 0 1 0 0 1 0 0
3750.0 0 0 0 0 0 1 2 2 1 0
3790.0 1 3 2 1 3 3 1 2 4 5
3830.0 3 2 1 4 5
##END=
