##TITLE=2-Bromopropene
##JCAMP-DX=4.24
##DATA TYPE=INFRARED SPECTRUM
##ORIGIN=NIST Mass Spectrometry Data Center
##OWNER=NIST Standard Reference Data Program
Collection (C) 2009 copyright by the U.S. Secretary of Commerce
on behalf of the United States of America. All rights reserved.
##CAS REGISTRY NO=557-93-7
##MOLFORM=C 3 H 5 Br
##$NIST SOURCE=MSDC-IR
##SPECTROMETER/DATA SYSTEM=HP-GC/MS/IRD
##STATE=gas
##XUNITS=1/CM
##YUNITS=ABSORBANCE
##XFACTOR=1.0
##YFACTOR=0.000000900
##DELTAX=4.0
##FIRSTX=550.0
##LASTX=3846.0
##FIRSTY=0.002285
##MAXX=3846
##MINX=550
##MAXY=0.009
##MINY=0
##NPOINTS=825
##XYDATA=(X++(Y..Y))
550.0 2539 4636 4239 3987 2838 1592 792 406 259 289
590.0 263 274 287 305 275 211 239 204 209 178
630.0 73 146 127 62 92 92 149 236 166 105
670.0 111 167 221 232 248 193 148 166 212 158
710.0 78 115 105 48 123 181 192 151 83 86
750.0 94 116 103 154 170 88 53 83 83 9
790.0 38 173 162 173 245 262 349 431 503 560
830.0 537 581 623 716 1024 1515 1965 2391 2862 3306
870.0 3726 4239 5431 7762 7685 5333 4342 4102 3898 3451
910.0 2879 2243 1706 1401 1125 912 879 818 627 432
950.0 302 233 223 189 191 200 254 261 248 247
990.0 203 242 236 168 178 153 118 185 289 298
1030.0 251 248 267 223 261 321 303 319 377 471
1070.0 506 537 567 562 604 670 672 601 614 590
1110.0 500 535 527 545 655 768 1016 1482 2171 3325
1150.0 5064 6980 8602 9327 9654 10000 9483 9589 9407 7154
1190.0 4448 2570 1602 1185 981 839 744 693 687 557
1230.0 446 510 486 416 389 385 370 355 362 368
1270.0 326 337 399 462 441 372 361 390 398 387
1310.0 382 358 314 286 286 294 298 295 326 363
1350.0 395 463 596 796 994 1108 1156 1170 1240 1531
1390.0 1640 1404 1162 1029 996 1061 1153 1281 1460 1627
1430.0 1735 1818 2125 2217 1900 1710 1610 1455 1264 1064
1470.0 887 755 652 560 455 357 303 253 211 168
1510.0 153 163 168 199 222 247 269 255 284 330
1550.0 360 368 371 399 420 425 456 528 591 712
1590.0 906 1102 1354 1719 2190 2747 3392 4070 4667 5095
1630.0 5264 5194 5007 4862 4658 4132 3218 2181 1349 878
1670.0 604 412 310 216 175 145 148 190 183 180
1710.0 164 169 167 161 186 204 193 192 222 249
1750.0 276 326 407 452 440 426 430 432 438 420
1790.0 364 289 239 229 206 135 96 120 141 112
1830.0 94 101 115 117 76 48 85 123 106 113
1870.0 117 92 101 112 101 89 87 68 88 112
1910.0 107 85 64 104 135 119 85 76 100 103
1950.0 95 100 107 83 68 81 100 107 121 135
1990.0 129 142 124 103 99 81 81 95 95 109
2030.0 121 95 76 92 111 93 84 74 58 94
2070.0 136 140 110 77 100 127 96 77 88 89
2110.0 93 98 99 81 79 81 71 96 109 101
2150.0 98 98 104 124 95 50 53 45 21 24
2190.0 35 59 88 74 70 82 77 64 64 63
2230.0 60 77 100 103 101 105 116 80 71 109
2270.0 114 84 66 67 72 106 139 121 83 77
2310.0 81 71 73 93 84 68 104 117 95 80
2350.0 74 83 89 86 68 75 79 70 68 94
2390.0 103 103 117 102 109 117 99 123 146 115
2430.0 94 120 131 123 157 135 69 69 71 118
2470.0 140 106 97 113 113 99 91 84 86 100
2510.0 77 51 31 26 79 126 136 157 98 80
2550.0 130 141 122 99 94 134 127 67 102 103
2590.0 70 88 103 114 78 81 126 106 92 79
2630.0 67 60 18 23 59 62 83 132 105 94
2670.0 108 72 25 21 25 27 46 30 1 11
2710.0 65 97 102 88 68 82 101 97 68 77
2750.0 100 127 164 138 116 80 63 110 121 147
2790.0 200 227 226 215 196 194 185 169 193 214
2830.0 237 286 336 364 404 421 425 511 478 449
2870.0 488 529 591 640 646 615 623 621 711 864
2910.0 1001 1204 1390 1470 1536 1614 1651 1697 1766 1767
2950.0 1738 1687 1685 1872 2222 2851 3034 2610 2543 2539
2990.0 2476 2451 2186 1704 1331 1084 934 825 733 663
3030.0 571 504 438 362 375 403 410 395 386 345
3070.0 284 257 240 294 379 391 404 524 613 558
3110.0 540 505 452 503 508 392 270 260 294 273
3150.0 200 110 44 115 170 152 142 116 64 29
3190.0 19 119 159 146 124 88 133 84 122 194
3230.0 218 218 146 121 165 151 104 104 97 68
3270.0 82 206 273 186 133 174 160 149 124 116
3310.0 130 80 60 90 90 53 83 82 34 13
3350.0 73 91 25 0 62 88 68 77 91 153
3390.0 169 124 143 103 81 134 135 140 94 114
3430.0 168 159 130 120 164 139 137 157 152 159
3470.0 194 193 191 131 113 128 114 158 150 167
3510.0 163 178 220 126 89 165 172 94 137 222
3550.0 262 233 198 153 111 80 68 66 103 124
3590.0 73 108 172 253 263 240 256 257 302 317
3630.0 240 194 166 198 182 133 176 222 210 211
3670.0 232 178 121 123 162 166 149 200 184 173
3710.0 245 229 237 217 72 132 235 182 184 176
3750.0 168 118 180 236 117 83 142 267 263 149
3790.0 148 204 254 215 132 176 219 129 174 247
3830.0 203 244 253 165 229
##END=
