##TITLE=2-Methyl-2-propen-1-ol
##JCAMP-DX=4.24
##DATA TYPE=INFRARED SPECTRUM
##ORIGIN=NIST Mass Spectrometry Data Center
##OWNER=NIST Standard Reference Data Program
Collection (C) 2009 copyright by the U.S. Secretary of Commerce
on behalf of the United States of America. All rights reserved.
##CAS REGISTRY NO=513-42-8
##MOLFORM=C 4 H 8 O
##$NIST SOURCE=MSDC-IR
##SPECTROMETER/DATA SYSTEM=HP-GC/MS/IRD
##STATE=gas
##XUNITS=1/CM
##YUNITS=ABSORBANCE
##XFACTOR=1.0
##YFACTOR=0.000004900
##DELTAX=4.0
##FIRSTX=550.0
##LASTX=3846.0
##FIRSTY=0.003964
##MAXX=3846
##MINX=550
##MAXY=0.049
##MINY=0
##NPOINTS=825
##XYDATA=(X++(Y..Y))
550.0 809 733 652 599 507 437 362 313 271 227
590.0 185 139 106 67 50 46 39 24 15 12
630.0 15 14 19 23 15 3 1 7 10 18
670.0 28 37 42 40 46 57 65 67 69 65
710.0 58 57 47 43 27 15 13 6 9 13
750.0 18 24 27 39 56 73 96 119 156 190
790.0 231 275 305 352 397 421 450 471 469 448
830.0 435 421 417 427 459 528 647 828 1089 1436
870.0 1854 2330 2816 3306 3811 4546 5629 6529 7096 6457
910.0 5183 4655 4412 4138 3761 3330 2955 2705 2468 2310
950.0 2269 2296 2331 2337 2358 2385 2463 2646 2918 3293
990.0 3845 4614 5542 6558 7538 8389 9180 9779 9961 10000
1030.0 9932 9543 8886 8123 7414 6789 6266 5825 5418 5043
1070.0 4698 4358 3947 3466 2950 2417 1952 1608 1377 1218
1110.0 1105 1016 940 870 816 777 758 761 771 804
1150.0 871 961 1077 1201 1324 1443 1580 1704 1773 1842
1190.0 1902 1926 1923 1890 1831 1752 1660 1572 1495 1421
1230.0 1357 1296 1249 1208 1167 1137 1127 1134 1140 1151
1270.0 1168 1189 1206 1232 1258 1284 1312 1346 1379 1406
1310.0 1436 1464 1494 1532 1579 1626 1683 1755 1856 1986
1350.0 2156 2361 2587 2809 3019 3200 3308 3324 3358 3351
1390.0 3192 2970 2718 2432 2165 1982 1899 1884 1922 2012
1430.0 2137 2277 2421 2545 2624 2650 2617 2522 2413 2288
1470.0 2116 1917 1679 1423 1177 960 780 632 521 438
1510.0 375 327 295 272 252 238 235 238 243 248
1550.0 250 262 279 291 302 316 332 347 356 362
1590.0 374 387 397 414 435 464 509 564 641 736
1630.0 842 963 1091 1205 1291 1337 1334 1296 1249 1201
1670.0 1123 985 800 612 458 344 269 226 196 174
1710.0 165 177 186 191 210 223 226 221 212 213
1750.0 217 207 200 201 193 183 185 202 224 257
1790.0 290 325 355 379 395 394 375 354 323 284
1830.0 227 166 117 81 56 36 23 19 18 13
1870.0 8 6 7 8 7 8 7 4 3 3
1910.0 1 2 1 0 2 3 4 4 4 6
1950.0 9 11 14 20 27 32 34 38 42 42
1990.0 41 46 47 45 50 56 61 67 67 70
2030.0 78 81 80 80 80 74 70 66 60 55
2070.0 51 51 49 49 47 44 46 44 43 45
2110.0 47 45 43 40 35 31 25 23 22 15
2150.0 15 15 12 10 12 14 14 15 16 17
2190.0 17 15 16 16 11 9 8 6 8 5
2230.0 1 2 0 1 4 5 7 7 8 10
2270.0 15 13 13 15 14 15 21 22 20 21
2310.0 27 32 35 34 38 43 43 42 46 43
2350.0 43 48 47 45 47 51 55 55 53 51
2390.0 52 53 53 50 49 52 47 40 39 38
2430.0 39 38 36 34 35 35 35 39 39 38
2470.0 38 38 39 38 43 46 44 40 39 38
2510.0 39 34 30 29 27 29 27 24 22 26
2550.0 28 27 23 25 31 26 26 32 32 33
2590.0 34 36 43 46 50 58 65 68 69 73
2630.0 79 83 86 89 95 101 107 112 123 137
2670.0 142 154 174 196 211 228 243 261 285 308
2710.0 331 347 368 394 419 440 457 475 495 521
2750.0 535 538 551 568 581 592 617 644 678 721
2790.0 762 807 856 916 987 1067 1168 1292 1439 1616
2830.0 1828 2097 2424 2802 3231 3673 4073 4432 4788 5143
2870.0 5447 5636 5720 5724 5670 5609 5590 5631 5718 5842
2910.0 6020 6253 6475 6637 6721 6750 6766 6769 6705 6497
2950.0 6116 5726 5380 5086 4950 4881 4724 4542 4450 4202
2990.0 3897 3727 3415 2973 2517 2120 1806 1546 1339 1182
3030.0 1068 996 957 950 976 1045 1172 1362 1621 1921
3070.0 2181 2338 2444 2550 2504 2412 2379 2156 1781 1426
3110.0 1102 806 574 415 307 238 199 171 139 111
3150.0 100 88 69 60 50 36 30 26 20 17
3190.0 13 10 9 11 13 10 6 5 4 1
3230.0 1 6 8 2 0 4 9 14 15 14
3270.0 19 18 10 8 9 15 21 17 21 24
3310.0 25 23 17 24 24 21 30 40 43 48
3350.0 54 56 55 53 63 72 70 73 73 73
3390.0 71 74 79 84 88 85 76 76 82 84
3430.0 83 80 79 79 81 85 85 89 92 91
3470.0 89 83 81 85 85 91 92 84 98 106
3510.0 88 80 85 88 90 80 82 88 89 90
3550.0 83 87 88 91 103 109 104 104 112 120
3590.0 130 149 168 190 230 285 356 450 568 708
3630.0 876 1038 1235 1465 1837 2129 2110 2083 2071 2009
3670.0 1916 1780 1580 1365 1166 942 726 545 412 320
3710.0 256 214 189 170 166 153 140 130 109 105
3750.0 108 107 114 107 99 101 86 81 79 78
3790.0 84 88 94 92 93 96 93 100 102 108
3830.0 118 127 133 127 130
##END=
