##TITLE=Isopropneylcyclopropane
##JCAMP-DX=4.24
##DATA TYPE=INFRARED SPECTRUM
##ORIGIN=NIST Mass Spectrometry Data Center
##OWNER=NIST Standard Reference Data Program
Collection (C) 2009 copyright by the U.S. Secretary of Commerce
on behalf of the United States of America. All rights reserved.
##CAS REGISTRY NO=4663-22-3
##MOLFORM=C 6 H 10
##$NIST SOURCE=MSDC-IR
##SPECTROMETER/DATA SYSTEM=HP-GC/MS/IRD
##STATE=gas
##XUNITS=1/CM
##YUNITS=ABSORBANCE
##XFACTOR=1.0
##YFACTOR=0.000001700
##DELTAX=4.0
##FIRSTX=550.0
##LASTX=3846.0
##FIRSTY=0.001431
##MAXX=3846
##MINX=550
##MAXY=0.017
##MINY=0
##NPOINTS=825
##XYDATA=(X++(Y..Y))
550.0 842 675 528 424 353 202 88 74 130 125
590.0 46 39 100 78 40 31 0 31 61 84
630.0 119 81 11 44 73 51 43 31 68 136
670.0 137 153 206 226 242 245 237 228 229 227
710.0 191 178 179 171 164 167 172 154 142 164
750.0 183 199 224 233 268 288 348 446 510 592
790.0 726 911 1090 1244 1472 1724 1984 2070 1896 1826
830.0 1837 1831 1839 1895 2081 2453 2969 3617 4391 5270
870.0 6348 7818 9007 9571 9989 10000 9293 8281 7380 6318
910.0 5159 4108 3186 2492 1991 1631 1472 1448 1530 1652
950.0 1776 1878 1966 2014 2023 1975 1808 1558 1301 1137
990.0 1105 1216 1406 1696 2069 2399 2556 2642 2738 2667
1030.0 2566 2418 2103 1787 1540 1353 1223 1108 1032 1005
1070.0 961 912 920 959 1008 1044 1060 1033 955 841
1110.0 680 563 466 349 307 305 297 293 284 285
1150.0 310 335 358 388 451 530 550 515 489 461
1190.0 429 406 409 413 422 504 662 921 1284 1637
1230.0 1854 2023 2182 2165 2117 2012 1698 1302 976 792
1270.0 712 728 789 835 847 860 856 799 774 710
1310.0 572 451 370 356 361 355 383 427 475 547
1350.0 666 845 1079 1350 1663 1978 2262 2491 2625 2677
1390.0 2677 2574 2338 2042 1828 1769 1836 1983 2124 2276
1430.0 2471 2688 2898 3131 3358 3370 3224 3073 2926 2732
1470.0 2501 2143 1737 1392 1122 899 731 620 552 517
1510.0 481 463 455 424 404 414 421 428 444 452
1550.0 461 490 524 554 578 600 639 676 717 772
1590.0 831 911 1020 1169 1382 1635 1955 2363 2834 3320
1630.0 3767 4134 4369 4435 4320 4064 3700 3202 2596 2012
1670.0 1502 1100 812 641 535 435 381 369 356 328
1710.0 307 315 315 296 273 280 310 330 359 403
1750.0 444 463 506 570 615 630 632 641 629 568
1790.0 523 486 445 398 341 303 288 283 266 266
1830.0 262 261 271 283 274 249 245 241 225 210
1870.0 207 200 205 221 237 256 283 322 360 401
1910.0 425 409 395 388 349 298 262 230 201 175
1950.0 149 146 161 151 125 119 129 130 119 106
1990.0 118 125 112 105 105 109 106 107 117 136
2030.0 157 195 229 237 265 292 290 305 310 289
2070.0 287 289 279 249 236 239 221 205 194 182
2110.0 171 150 133 129 113 100 96 87 83 65
2150.0 60 73 67 59 61 61 55 38 47 73
2190.0 65 68 72 64 68 64 62 47 45 44
2230.0 29 42 46 39 64 83 70 62 59 73
2270.0 80 62 52 53 45 33 32 29 14 5
2310.0 0 7 40 36 33 35 39 45 30 38
2350.0 43 33 25 19 18 26 26 24 33 31
2390.0 26 38 41 33 45 51 45 40 44 51
2430.0 40 40 53 62 56 53 75 96 103 118
2470.0 123 117 116 105 94 91 85 70 54 41
2510.0 28 26 24 19 16 24 34 29 17 32
2550.0 38 32 38 18 17 34 16 19 34 23
2590.0 27 32 38 46 38 30 44 53 49 36
2630.0 19 21 38 41 28 13 23 42 37 34
2670.0 27 7 19 34 28 55 74 53 48 60
2710.0 81 95 115 150 168 164 180 194 191 184
2750.0 205 219 208 202 195 176 164 194 210 226
2790.0 258 293 316 331 363 401 447 497 538 593
2830.0 661 752 852 972 1136 1323 1506 1667 1822 1965
2870.0 2102 2221 2332 2422 2492 2595 2721 2880 3075 3311
2910.0 3601 3888 4168 4402 4557 4718 4901 4961 5083 5219
2950.0 5010 4814 4977 5449 6057 6480 6789 7303 7648 7926
2990.0 8332 8557 8716 8861 8985 9118 9136 8918 8455 7749
3030.0 7010 6217 5293 4428 3777 3372 3213 3336 3778 4596
3070.0 5833 7220 8249 8814 9316 9237 8585 8110 7089 5368
3110.0 3751 2582 1808 1321 1012 778 626 527 435 379
3150.0 348 312 264 210 186 176 150 130 103 94
3190.0 138 137 108 109 94 76 75 86 97 105
3230.0 103 105 104 76 75 73 65 72 57 72
3270.0 67 53 64 69 86 63 43 62 80 95
3310.0 83 77 80 75 77 94 112 116 116 119
3350.0 102 102 88 68 93 90 60 63 73 79
3390.0 102 84 51 66 87 89 72 57 55 59
3430.0 62 40 24 62 65 58 92 98 85 92
3470.0 111 139 153 132 99 105 126 93 64 74
3510.0 87 86 64 60 50 55 58 68 68 56
3550.0 73 85 92 101 126 94 62 65 62 97
3590.0 93 47 53 73 84 98 105 98 88 73
3630.0 57 51 82 104 102 93 76 76 77 73
3670.0 82 70 46 52 81 87 51 6 13 62
3710.0 95 76 51 59 91 121 126 121 117 102
3750.0 97 118 139 111 63 65 97 117 128 114
3790.0 100 114 132 127 136 150 166 152 137 162
3830.0 131 115 130 120 100
##END=
