##TITLE=2-Bromo-2-butene
##JCAMP-DX=4.24
##DATA TYPE=INFRARED SPECTRUM
##ORIGIN=NIST Mass Spectrometry Data Center
##OWNER=NIST Standard Reference Data Program
Collection (C) 2009 copyright by the U.S. Secretary of Commerce
on behalf of the United States of America. All rights reserved.
##CAS REGISTRY NO=13294-71-8
##MOLFORM=C 4 H 7 Br
##$NIST SOURCE=MSDC-IR
##SPECTROMETER/DATA SYSTEM=HP-GC/MS/IRD
##STATE=gas
##XUNITS=1/CM
##YUNITS=ABSORBANCE
##XFACTOR=1.0
##YFACTOR=0.000001000
##DELTAX=4.0
##FIRSTX=550.0
##LASTX=3846.0
##FIRSTY=0.002777
##MAXX=3846
##MINX=550
##MAXY=0.01
##MINY=0
##NPOINTS=825
##XYDATA=(X++(Y..Y))
550.0 2777 5055 3598 2326 1197 559 230 246 260 112
590.0 110 117 128 177 133 123 188 167 106 101
630.0 103 54 0 31 77 40 55 105 107 128
670.0 129 162 139 110 112 77 111 87 45 50
710.0 24 36 86 138 136 94 150 220 207 203
750.0 244 410 665 899 1246 1719 2264 2809 3323 3867
790.0 4567 4753 4158 3455 2834 2484 2013 1519 1194 960
830.0 904 988 1173 1396 1564 1741 1772 1789 1791 1687
870.0 1607 1551 1720 2174 2783 3326 3599 3699 3650 3511
910.0 3218 2616 1869 1230 806 611 533 472 442 421
950.0 288 271 356 362 399 422 386 422 536 603
990.0 608 713 928 1175 1438 1682 1864 2070 2290 2441
1030.0 2587 2646 2644 2554 2496 2515 2449 2356 2312 2200
1070.0 2072 1876 1642 1543 1416 1171 980 939 1045 1285
1110.0 1664 2296 3296 4656 6023 6933 7378 7432 7241 6782
1150.0 5694 4142 2675 1581 1038 787 615 508 412 365
1190.0 356 360 353 323 328 303 283 305 312 270
1230.0 311 411 480 596 727 851 1033 1319 1659 2195
1270.0 3044 4291 5678 6669 7065 7146 6932 6460 5707 4434
1310.0 2933 1732 1045 721 573 518 486 497 548 588
1350.0 664 767 875 1080 1405 1732 2003 2122 2193 2391
1390.0 2372 2069 1724 1455 1371 1458 1690 1950 2147 2378
1430.0 2951 3341 3077 2870 2831 2707 2561 2402 2162 1892
1470.0 1591 1325 1185 1072 1012 985 972 983 1007 1059
1510.0 1048 1028 1058 1053 986 956 910 854 773 689
1550.0 669 693 739 732 724 732 796 845 809 767
1590.0 743 709 658 630 589 567 571 542 558 613
1630.0 655 777 917 1177 1571 1956 2278 2413 2441 2422
1670.0 2333 2091 1682 1244 868 587 480 410 303 218
1710.0 152 138 141 105 78 120 168 144 107 90
1750.0 105 121 116 105 76 78 116 122 118 134
1790.0 152 152 166 219 239 215 245 276 288 297
1830.0 283 256 251 244 197 151 119 111 111 102
1870.0 99 86 78 44 36 45 40 65 63 49
1910.0 56 66 97 103 88 86 94 85 69 61
1950.0 62 53 58 88 94 81 76 55 61 79
1990.0 50 23 24 27 27 9 13 31 35 32
2030.0 17 57 84 78 76 66 50 60 63 48
2070.0 42 58 99 111 91 68 55 64 69 52
2110.0 44 34 50 63 41 49 70 76 67 43
2150.0 50 38 56 85 63 37 52 80 52 50
2190.0 79 91 88 80 94 90 61 53 56 47
2230.0 30 44 82 91 69 58 73 81 88 116
2270.0 105 101 134 125 110 85 42 52 66 44
2310.0 55 72 88 130 160 119 104 141 139 117
2350.0 135 154 172 201 161 134 128 122 113 119
2390.0 135 160 172 156 153 164 180 182 188 197
2430.0 195 183 207 216 207 255 281 245 217 220
2470.0 235 201 163 140 133 144 148 129 123 133
2510.0 114 115 134 148 126 123 129 111 109 55
2550.0 54 68 67 76 76 64 45 54 40 69
2590.0 51 13 19 18 33 80 102 54 17 6
2630.0 33 60 27 69 107 71 56 40 66 90
2670.0 68 52 45 70 95 97 102 114 102 105
2710.0 185 254 252 246 270 334 404 456 476 472
2750.0 479 463 405 337 278 221 227 227 221 245
2790.0 317 372 421 507 549 536 547 617 705 795
2830.0 880 985 1145 1368 1686 2016 2337 2707 3076 3349
2870.0 3484 3590 3679 3659 3621 3601 3619 3818 4234 4807
2910.0 5706 6913 8292 9478 10000 9929 9906 9969 9473 8402
2950.0 7305 6395 5802 6204 7382 7196 6335 6298 5978 5597
2990.0 5363 4726 4287 4341 4720 5156 5410 5619 5718 5501
3030.0 4960 4205 3426 2753 2177 1717 1352 1096 918 817
3070.0 810 811 763 723 668 631 644 585 523 512
3110.0 487 483 452 430 426 383 353 357 306 242
3150.0 225 184 135 126 153 127 98 110 117 88
3190.0 72 108 85 113 167 174 143 167 156 109
3230.0 84 63 77 37 10 53 71 42 49 103
3270.0 96 87 86 72 113 168 230 168 101 105
3310.0 63 41 96 89 38 79 100 48 99 134
3350.0 56 36 17 35 71 81 66 50 102 141
3390.0 158 124 80 65 9 15 66 51 91 98
3430.0 80 107 101 94 64 89 135 139 138 148
3470.0 155 141 149 164 193 213 181 180 152 158
3510.0 148 68 45 87 111 108 127 136 126 99
3550.0 125 137 140 139 67 48 84 127 125 95
3590.0 141 196 171 179 176 143 127 106 103 123
3630.0 138 107 147 144 148 216 178 193 195 152
3670.0 214 238 163 125 119 126 139 92 33 55
3710.0 87 169 167 171 154 159 256 251 217 172
3750.0 168 190 179 169 206 181 136 180 180 114
3790.0 75 116 188 196 176 224 245 248 237 167
3830.0 115 163 203 223 230
##END=
