##TITLE=1,4-BUTANEDIOL
##JCAMP-DX=4.24
##DATA TYPE=INFRARED SPECTRUM
##ORIGIN=Forensic Spectral Research
##OWNER=NIST Standard Reference Data Program
Collection (C) 2009 copyright by the U.S. Secretary of Commerce
on behalf of the United States of America. All rights reserved.
##CAS REGISTRY NO=110-63-4
##MOLFORM=C 4 H 10 O 2
##$NIST SOURCE=MSDC-IR
##SPECTROMETER/DATA SYSTEM=Nicolet Nexus
##STATE=GAS
##PATH LENGTH=8.36
##SAMPLE DESCRIPTION=99+% ALDRICH 24,055-9 LOT#06606M;
7cm gold plated vapor cell with KBr windows
##TEMPERATURE=230 C
##RESOLUTION=4.0009
##DATA PROCESSING=small amount of water vapor stubtracted out
##XUNITS=1/CM
##YUNITS=ABSORBANCE
##XFACTOR=1.0
##YFACTOR=4.6566E-10
##FIRSTX=3999.709
##LASTX=399.199
##FIRSTY=.032725
##MAXX=3999.7
##MINX=399.181
##MAXY=.98835
##MINY=.027824
##NPOINTS=1868
##XYDATA=(X++(Y..Y))
3999.7 70277912 69415472 69614024 70078144 70845456 72213048
3988.1 70725240 69446672 69482472 70159304 70576488 70839312
3976.5 72953880 73730264 71847848 71888504 72173912 71567376
3964.9 71473032 74311552 75658768 73751128 72903248 72731920
3953.4 72006488 73501344 77279776 79340368 76616216 77697528
3941.8 78147040 74367416 73278560 73119552 76020760 80582624
3930.2 78729928 75382936 75838432 78513712 77384760 77863744
3918.7 80070448 81407464 78420216 75701984 75538088 75895632
3907.1 78849704 83567720 86189664 86907784 85670656 82957304
3895.5 81559584 83514408 84782888 83318864 83230016 87226736
3883.9 87478592 88588696 90620736 88473992 87115016 88640256
3872.4 89437808 91176008 89322528 87940816 89552000 89179632
3860.8 87701192 87269248 89218544 90901512 91894688 88974056
3849.2 87151816 86183968 86837264 88394824 89186760 90371568
3837.7 88635488 87956608 89312584 88398264 85421872 85177280
3826.1 85199968 84797304 86463632 87063304 85126608 84905704
3814.5 82628768 81326488 80916416 81976000 82988648 82232416
3803 83668664 84635848 82497928 83023960 81433792 79978888
3791.4 79759976 81350552 82893456 82732488 81371520 81165864
3779.8 82202736 81750720 80639336 80970272 82061856 84076048
3768.2 83854776 84776416 84436800 83845984 85891344 88342880
3756.7 87517824 87855280 90317792 92253608 91679008 92945912
3745.1 95696808 96193888 95531488 96530160 99338992 107355608
3733.5 104905800 99155616 97947984 102079464 106683792 108829968
3722 108750336 107298760 107291896 110680120 116756664 123849128
3710.4 127999024 130425624 134387136 141322160 151466816 165837728
3698.8 177281840 192225840 212166432 236769888 266412528 304330592
3687.2 348403872 385639200 420335904 453150432 482382592 506619616
3675.7 530542656 550606784 560746496 573159104 576200064 567959872
3664.1 553185728 530184800 503729600 477712352 450132832 414530624
3652.5 391971584 368873184 336807936 305205664 280382080 261321728
3641 243941552 228325248 216793360 207825344 200876800 195536384
3629.4 195456096 187010768 180280544 176257088 176189280 177586416
3617.8 176914032 174820832 175706624 174156352 173577552 175496256
3606.2 174541776 171768848 172701408 173639008 173817488 174996784
3594.7 177375296 175970896 175250912 180725072 185453600 180375088
3583.1 177709696 179787312 182480368 183483984 185690096 187978800
3571.5 191219056 197908608 210710944 213290368 205581392 202973376
3560 204035712 201585312 199377200 199359840 197372736 191028400
3548.4 189481600 191073376 183790960 170242192 160936656 154673008
3536.8 150746512 142818752 134103648 128505952 124382592 121038200
3525.2 119290720 115626880 107183816 101367656 99636024 97583944
3513.7 96344888 96539552 98740008 97219096 95647848 99266656
3502.1 101764752 98122504 94638456 93896184 93580288 93261512
3490.5 93697112 93873672 94135672 94057904 95221896 96534976
3479 94509544 91744248 91672104 91165336 90897824 90417040
3467.4 90102320 89771648 89577136 89821872 90145816 88951976
3455.8 87257992 86093280 85469360 85102048 86071512 85985056
3444.2 84807672 84065304 83294048 83419320 83521176 82216176
3432.7 81146072 80586424 80306648 80071768 79941832 79983384
3421.1 80046184 79001640 77997336 77816328 77418776 76547088
3409.5 75946112 75366888 75009552 74772768 74855952 74554232
3398 74190888 73670200 73591736 73657720 72689304 71950448
3386.4 71931848 71882512 71424328 70900808 70820656 70494296
3374.8 70148256 69750048 69575616 69598688 69408880 68950992
3363.3 68906864 68733664 68098432 67717928 67592688 66951732
3351.7 66481832 66110240 65762460 65411912 65127724 64717236
3340.1 64336204 64217588 64292828 63780456 63146988 62723444
3328.5 62617816 62393664 62043848 61640036 61314136 61110884
3317 61147656 60954468 60816460 60791168 60821396 60544144
3305.4 60323676 60052188 60024264 59998084 59965532 59820612
3293.8 59753320 59803312 59793756 59714100 59783208 60061296
3282.3 60086644 59883660 60006356 60060084 60259764 60322464
3270.7 60225836 60108728 60237296 60358824 60392304 60520076
3259.1 60864308 61161256 61403732 61274700 61148644 61398336
3247.5 61786912 61905372 61912520 61901040 62139676 62292792
3236 62393512 62433532 62651908 62784636 62784788 62765228
3224.4 62677936 62587152 62801912 62898580 62892336 62941892
3212.8 62957724 62983760 63156048 63013448 63054560 63183992
3201.3 63241636 63242320 63398360 63480540 63609344 63713944
3189.7 63820684 63862288 63944432 63900312 63972780 64148224
3178.1 64312116 64325836 64369904 64471000 64648600 64675748
3166.5 64730812 64742788 64742252 64811740 64971700 64960336
3155 64943856 65025792 65205248 65306364 65463436 65571828
3143.4 65751084 65994376 66246056 66354388 66641244 67046768
3131.8 67193576 67228376 67499896 67795216 68224512 68563408
3120.3 68683264 68870552 69177264 69480704 69739080 69935168
3108.7 70212776 70605040 71093376 71636368 72135472 72471872
3097.1 72907096 73354072 73664808 74090728 74634472 75142736
3085.5 75588472 76155552 76777216 77403312 78066424 78746496
3074 79512608 80334024 81258088 82240424 83227296 84161552
3062.4 85074920 86140024 87448656 88944304 90362392 91739064
3050.8 93470560 95308976 97019872 98873696 101049936 103228240
3039.3 105557048 108232128 111327400 114523880 118007088 121663688
3027.7 125726656 130477424 135863984 141694240 148181440 155723392
3016.1 164440912 174252416 185170464 197067072 210029056 224406224
3004.5 240289264 257484944 276207488 296802240 319533504 344902720
2993 373523616 405315232 441131040 484332064 540738944 619025472
2981.4 705722816 764441152 806186944 857145984 921574848 994518208
2969.8 1073345728 1157652096 1247513088 1339148672 1428672640 1514510720
2958.3 1597947776 1678728960 1756760192 1830429440 1899786368 1963070592
2946.7 2017711744 2058878848 2088299520 2106742400 2118554496 2122470656
2935.1 2115204224 2091302016 2054173696 2008096384 1961515520 1914806784
2923.6 1865932160 1812914560 1760238336 1709270272 1661976832 1617432064
2912 1576069888 1536484992 1500147456 1468141056 1443308928 1425674240
2900.4 1415182464 1411030912 1411598464 1412133760 1413188352 1412574464
2888.8 1408795008 1400677248 1389218432 1373675648 1353003520 1326314624
2877.3 1294380544 1256005504 1212002560 1163922432 1113227520 1060574208
2865.7 1009112000 959828992 911432960 863539712 817853056 773633280
2854.1 730716800 688348032 647327680 608376640 571601216 536446720
2842.6 503751776 473369728 445273440 419385728 396042880 374823072
2831 355442016 337991968 322489280 308814976 297064832 286805632
2819.4 277308736 268799264 261438880 254998432 249403136 244791440
2807.8 240517520 236319472 232753472 229892448 226902784 223660160
2796.3 220380208 217185936 214336480 211576944 208991392 206482608
2784.7 204181840 202065472 200357200 198695104 195550944 192260816
2773.1 189790112 187394304 185365664 183799008 181886608 178712752
2761.6 176233712 174251808 172477072 170637952 168874592 167097872
2750 165545536 164068464 162210352 160023728 158217408 156497376
2738.4 154892496 153130288 151434000 149677728 148138160 146518768
2726.8 144590656 142710288 140926160 139189040 137657184 136014640
2715.3 134368656 132907616 131556280 130085904 128512240 126879104
2703.7 125561384 124203408 122519120 120905264 119470336 118051256
2692.1 116700536 115231152 113723168 112328696 110952648 109346104
2680.6 107809496 106355560 105063632 103784464 102423424 101160952
2669 100072072 98867128 97506600 96274120 95212120 94229424
2657.4 93141208 92077896 91256200 90450200 89513144 88626800
2645.8 87837920 87074712 86342096 85622456 84908744 84296440
2634.3 83693256 82981880 82312312 81749712 81129464 80567496
2622.7 80046880 79527256 79005048 78501480 78122744 77685080
2611.1 77203248 76757208 76338096 75905664 75516096 75140120
2599.6 74805768 74441632 74060760 73770080 73480248 73153496
2588 72897408 72666536 72487864 72215352 71957296 71754936
2576.4 71571296 71361416 71196976 70943416 70778816 70676112
2564.8 70536656 70415408 70315120 70214688 70117496 70003968
2553.3 69950968 69876040 69782248 69735096 69671224 69604288
2541.7 69566800 69594624 69599072 69596776 69639400 69676744
2530.1 69642240 69583360 69521488 69471352 69427120 69291760
2518.6 69155352 69076424 68970912 68885264 68860368 68751896
2507 68622528 68499536 68422808 68441336 68495632 68490344
2495.4 68421504 68406808 68472968 68489808 68474264 68553984
2483.9 68673688 68766064 68829336 68880744 69017344 69151520
2472.3 69198336 69300656 69454336 69577608 69679656 69788848
2460.7 69911776 70014400 70174872 70369520 70493224 70610720
2449.1 70785264 71005536 71114032 71207032 71325312 71479792
2437.6 71580664 71700840 71766152 71813032 71884432 71960056
2426 72042688 72080896 72023320 71955136 71891192 71838320
2414.4 71823488 71749176 71582360 71418952 71292976 71162112
2402.9 71018664 70923456 70887296 70851136 70814896 70778744
2391.3 70742584 70706432 70670280 70634128 70597976 70561832
2379.7 70525680 70489536 70453392 70417176 70381032 70344888
2368.1 70308752 70272616 70236480 70200344 70164208 70128080
2356.6 70091952 70055816 70019696 69983488 69947368 69911240
2345 69875120 69839000 69802880 69766760 69730648 69694528
2333.4 69658416 69622224 69586120 69550008 69513896 69477792
2321.9 69441688 69405584 69369480 69333384 69297280 69261184
2310.3 69225088 69188912 69152816 69116728 69080632 69044544
2298.7 69008456 68972368 68936288 68900200 68864120 68828040
2287.1 68791880 68755800 68719720 68683648 68647576 68611504
2275.6 68575432 68539360 68503288 68467224 68431152 68055952
2264 67669192 67341712 67102200 66891340 66706896 66505064
2252.4 66311984 66157368 65942140 65814840 65680004 65533048
2240.9 65367188 65311856 65273244 65198840 65151608 65158244
2229.3 65074468 65116356 65138560 65132760 65063404 65140544
2217.7 65175184 65211200 65265992 65323916 65302088 65366348
2206.1 65520988 65547780 65493584 65623280 65654808 65712908
2194.6 65754140 65743528 65710848 65860048 65952064 65930608
2183 65764904 65750320 65734668 65739784 65624576 65538392
2171.4 65400924 65393824 65338952 65332692 65282172 65323688
2159.9 65139016 65030828 64887788 64876420 64840264 64818376
2148.3 64784964 64846672 64831876 64857580 65105596 65428856
2136.7 65767424 65821484 65717644 66001708 66089004 66304192
2125.2 66445616 66904336 66818184 67113824 67167272 68053424
2113.6 68004744 67959592 67783968 68201240 68276344 68472048
2102 68580104 68688240 69010760 69049144 69444600 69548936
2090.4 70655928 70604736 70595520 70512480 70738976 71158656
2078.9 71575752 72096496 72186680 72803848 72955728 73476784
2067.3 74290976 75907744 75797456 75062144 75392968 75449440
2055.7 75662936 75705920 75729304 75769360 75613632 75652440
2044.2 75502904 76143816 75948888 74792736 74381592 74060608
2032.6 73794024 73472632 73273256 73122944 72945032 72917024
2021 72769928 73592040 74529952 73193440 71859296 71592112
2009.4 71526192 71500000 71184992 70975816 70827104 70750568
1997.9 70467976 70218832 71235680 72975504 71766152 70827184
1986.3 69909632 69101936 68894608 68702872 68420592 68189064
1974.7 67921632 67675464 67534008 68519984 69783400 68370056
1963.2 67185240 67199088 67186160 67427072 67660472 67344544
1951.6 67019548 67265464 67525064 68120712 70024368 71450600
1940 69024088 67912752 67832328 68172072 68262944 67917040
1928.4 67748616 67810360 69139488 71346128 69696216 69330848
1916.9 68974512 67692144 67006320 67385312 68140384 67261712
1905.3 66060056 65904644 65986968 65579688 65940612 66794716
1893.7 66244144 65613432 66753748 65778800 64717848 64722044
1882.2 64242212 65275912 65508392 64427848 64193196 65258512
1870.6 68547552 70929064 68706168 66939196 67291080 68076160
1859 67483216 66614416 66151564 66424984 67101896 70313896
1847.4 73039448 74278800 76757128 76513176 75742344 78381048
1835.9 81608592 85517008 88414696 90139544 90093304 92002744
1824.3 95756968 95547568 95225760 97145344 98441368 96369824
1812.7 98346088 99587328 98954000 97729560 96570568 99639584
1801.2 101955952 96346544 94515136 94387504 93816944 94274368
1789.6 90851232 87439048 89038160 89324960 88731504 90182576
1778 89946296 91557960 93839840 96329192 98796640 102437240
1766.4 101344968 99763664 103377600 106006008 108066408 110787488
1754.9 109881104 111989488 117414952 116834568 116860784 119564160
1743.3 117648696 110721944 108029576 105247616 106114672 107340352
1731.7 104098024 102178064 96722176 93237296 93332288 91716536
1720.2 91176320 94619640 95079984 92155656 87412944 84875856
1708.6 84105328 84665536 84283048 82941904 84571032 80890104
1697 79083192 75797144 71003152 70422464 72729304 72462256
1685.4 73471704 75365040 72654464 71233840 66989732 67064200
1673.9 66150112 66411308 68457192 67375592 64016144 64055772
1662.3 65055164 63960968 63752036 65725356 70440272 72287008
1650.7 66636428 68506272 71318560 68381768 66477096 67256824
1639.2 69023096 72589848 73822600 70448328 69193592 70109128
1627.6 71301048 71873128 73317592 73318128 72582544 73939592
1616 74037264 72313152 72241344 73020128 73572024 73615296
1604.5 73779008 74604872 74048208 73474400 73658800 73877664
1592.9 73456464 73434752 73097696 72690304 72704456 73013896
1581.3 72709688 73225840 75868920 76504680 73849632 74319792
1569.7 76794368 75855568 75099784 75330712 76131624 83595968
1558.2 86662568 80460136 79557400 79342616 83662432 82512152
1546.6 82537808 91453808 90432792 88609432 86808208 85648816
1535 88083056 90681040 88204120 88314880 92319040 94116624
1523.5 93896888 98700696 98536896 102287320 106615984 104133912
1511.9 109245384 122909424 136410704 132128360 118521216 123143488
1500.3 129742880 136687984 145903520 155037856 164365808 183171680
1488.7 198240512 202347952 204321344 208271440 214416176 218991664
1477.2 225997408 232981904 236886288 238862880 236965088 239333840
1465.6 243134096 246480928 248829408 256099168 265812816 272955904
1454 273664128 278245216 281466816 286111328 288514464 289574464
1442.5 289557184 289749280 290444160 294770176 291137600 288739904
1430.9 287232800 287335232 286924480 291116000 295082752 298222848
1419.3 309420192 321637824 324957088 332396672 346836800 363060608
1407.7 378739904 399883328 421901056 440055104 460423488 484687104
1396.2 498748640 510017792 515198176 520591872 526011808 527508960
1384.6 518574592 510860704 501706336 492018592 477208960 463794240
1373 447333440 431429408 418054016 404368928 394719520 392725632
1361.5 385302176 374731392 368139872 364124192 360023776 356357952
1349.9 353265728 350475264 347252608 344133056 343463072 349625088
1338.3 347152256 335782560 325156000 319178560 315377312 311951424
1326.7 308843520 306914496 306096896 306570656 307245728 308283552
1315.2 309359520 311233920 310820224 310962144 314075136 317422752
1303.6 320589632 324342208 328765248 334403520 339729312 343590880
1292 349119776 355484736 361020000 364335040 367096256 371784032
1280.5 376665504 380391008 383709472 387661344 391627392 395415328
1268.9 398418912 401810176 404098144 406007872 408618208 411307424
1257.3 413226304 415230144 416998368 418958560 420663424 422337856
1245.7 423737088 425543488 426389408 427135104 427179328 426833632
1234.2 425947616 424596960 422516928 420225024 417358880 413768064
1222.6 409078176 404990112 401006112 397186400 392967072 388954080
1211 384522400 380146688 376032736 372465888 369111008 366057408
1199.5 362720384 359516640 356210432 353455008 351017504 348724640
1187.9 346564160 344663296 342664384 340795008 338958880 337755520
1176.3 336957728 336533920 335771136 335588672 335785824 336270720
1164.8 336373472 336000032 335388032 334589088 333143360 331651264
1153.2 329971136 328486112 327043456 325976256 325144320 324661344
1141.6 324286688 324124000 324052896 324501792 325073824 326184384
1130 327961152 330979904 334955968 340192576 346825856 355105728
1118.5 365008096 377694528 393044512 411508256 432906112 457756576
1106.9 485272064 514898240 544970880 576551104 608256384 640251520
1095.3 671632320 703836032 736327424 770321856 803637440 837493632
1083.8 870055232 902945344 935810560 972476736 1012592256 1060123712
1072.2 1113685120 1176848768 1246354944 1324660864 1407462528 1496813440
1060.6 1585694720 1678761984 1768494720 1859231360 1938740864 2010990464
1049 2061462784 2096804992 2105467392 2099560960 2070720512 2032698752
1037.5 1977549696 1917393792 1842965120 1763893504 1676108800 1590472320
1025.9 1504398208 1426567040 1352905472 1287043072 1224425472 1170847744
1014.3 1123868800 1084505088 1047852032 1014861504 982793600 953619136
1002.8 925415872 900305280 875599872 853136448 831159488 811002368
991.23 790603712 771244416 751744512 733401984 714615872 696325952
979.66 677007808 657951168 638572992 620413888 602757440 586346496
968.09 569824832 553817152 537923072 522896320 508078240 494281184
956.52 480851840 468393408 456387744 445079328 433471072 421957664
944.95 410309280 399482816 389370432 380253216 371219072 362110464
933.38 352776288 343132512 332025600 320482784 309250752 298688288
921.8 288657696 279402560 270200832 261050656 251610704 242157392
910.23 233111440 224296160 215821504 207938272 200610912 194061648
898.66 188233696 183026720 178534640 174602256 171239984 168763216
887.09 167293584 166351104 164706944 162783344 161524512 160637136
875.52 160035312 159677200 158906816 157947488 157139024 156107152
863.95 154761792 153337840 151853344 150029088 148172688 146447344
852.38 144691024 142514784 140507312 138706976 136840000 134999856
840.81 133317888 131480664 129712544 127877008 126284328 124669072
829.24 123253928 121897680 120234392 118661008 117281808 115507432
817.67 113934600 112709936 111535480 109951232 108668384 107603368
806.09 106610880 105582312 104338560 103068096 102374504 101297216
794.52 100589568 99882296 99278448 98668264 98107248 97390488
782.95 96788168 96172752 95890624 95596520 95330808 95230328
771.38 95515088 95686712 96090400 96329424 96726288 96891656
759.81 97074592 97289312 97580784 97349016 97390640 96988920
748.24 96977472 98466984 101162624 100840688 97960000 95215352
736.67 93969208 93226760 92913760 92677888 92272224 91671000
725.1 91581040 91401456 93554640 94206432 91298968 89519880
713.53 89387920 89178616 89635888 91771568 98289080 104683992
701.96 106322544 106314736 100998312 94466552 92018136 91977136
690.38 93657544 94451592 93088136 93046776 93401816 93195696
678.81 93100632 92948984 92715376 93997624 102231184 116127448
667.24 101830152 89528656 89337176 90233448 91272128 91425160
655.67 91578920 92331064 93153080 93254752 93663832 92653288
644.1 92566296 93295720 94002816 92967848 93079640 93604048
632.53 92499976 90978536 90425112 91191776 91907328 91395416
620.96 92148272 93277632 94584512 93400952 92105776 92146384
609.39 92834608 93131376 94357424 95841184 98870608 101159128
597.82 99603872 99079888 100671440 103178560 103071352 102354416
586.25 104462232 107326304 107793368 109467088 108628088 110794376
574.67 111398280 110965552 113082424 112945632 113240200 114715536
563.1 115636784 116620792 119935184 122889616 124701360 126340056
551.53 131930224 136000144 134999776 134994256 136235376 138863696
539.96 143754752 146338368 148536992 151797504 152446144 153019280
528.39 156881040 163389744 159997792 156104208 159670112 164333968
516.82 168087792 170586768 164592256 163983968 162264896 156677664
505.25 156941664 162953312 164836928 154987360 151366640 154096768
493.68 161298128 166428592 160572976 159865024 166909536 162571984
482.11 162097584 161904496 163447904 170425152 169736912 173236912
470.54 182684256 193540304 187922912 179439920 190963168 199169808
458.96 199273056 201877088 203575072 211241344 216000976 224081344
447.39 248205152 255054832 248709824 237984304 229920496 233443584
435.82 241755552 236571616 227885424 223744816 225619040 231736576
424.25 234869296 227846272 251607248 289075904 228285712 193689008
412.68 210440112 223538352 229049840 211072960 193094800 219988720
401.11 284730976 291258272
##END=
