##TITLE=s-Amyliodide
##JCAMP-DX=4.24
##DATA TYPE=INFRARED SPECTRUM
##ORIGIN=NIST Mass Spectrometry Data Center
##OWNER=NIST Standard Reference Data Program
Collection (C) 2009 copyright by the U.S. Secretary of Commerce
on behalf of the United States of America. All rights reserved.
##CAS REGISTRY NO=637-97-8
##MOLFORM=C 5 H 11 I
##$NIST SOURCE=MSDC-IR
##SPECTROMETER/DATA SYSTEM=HP-GC/MS/IRD
##STATE=gas
##XUNITS=1/CM
##YUNITS=ABSORBANCE
##XFACTOR=1.0
##YFACTOR=0.000001300
##DELTAX=4.0
##FIRSTX=550.0
##LASTX=3846.0
##FIRSTY=0.000339
##MAXX=3846
##MINX=550
##MAXY=0.013
##MINY=0
##NPOINTS=825
##XYDATA=(X++(Y..Y))
550.0 261 305 148 236 255 324 377 439 568 728
590.0 827 855 780 631 470 321 250 219 131 46
630.0 71 126 139 151 159 146 130 80 67 102
670.0 106 93 79 114 153 191 208 197 251 317
710.0 375 446 548 602 610 628 571 498 450 396
750.0 365 338 352 379 377 377 360 348 300 236
790.0 216 215 222 213 211 230 196 168 175 197
830.0 233 228 228 215 189 210 208 164 154 143
870.0 127 132 136 134 125 113 115 128 144 186
910.0 235 269 287 283 266 236 189 162 169 139
950.0 103 113 120 104 70 53 41 23 17 0
990.0 34 95 84 102 118 86 82 116 182 220
1030.0 229 209 218 216 208 193 186 209 207 180
1070.0 211 231 216 247 293 293 277 268 254 232
1110.0 205 221 265 273 266 276 308 350 442 516
1150.0 606 751 952 1340 1954 2689 3335 3737 3715 3234
1190.0 2604 2043 1606 1321 1205 1239 1389 1648 2054 2495
1230.0 2787 2862 2695 2264 1782 1474 1297 1237 1194 1123
1270.0 1071 1012 947 923 911 921 937 910 834 731
1310.0 642 567 514 513 539 575 620 674 717 727
1350.0 722 678 623 583 576 577 595 634 652 660
1390.0 663 612 541 510 498 512 551 625 741 895
1430.0 1055 1167 1240 1319 1364 1407 1468 1518 1528 1461
1470.0 1320 1139 944 766 615 497 415 341 280 225
1510.0 182 175 159 146 138 124 117 117 100 86
1550.0 80 86 84 77 82 96 98 91 102 103
1590.0 108 119 113 115 125 114 85 80 95 101
1630.0 104 89 73 75 72 55 63 97 78 74
1670.0 91 89 89 86 92 94 85 61 62 74
1710.0 59 49 59 70 76 75 57 42 49 58
1750.0 61 64 59 62 65 65 69 73 74 62
1790.0 49 52 65 88 66 55 59 59 62 64
1830.0 63 65 64 58 56 62 56 54 62 56
1870.0 37 37 54 51 55 55 60 66 62 52
1910.0 55 66 48 32 36 56 69 55 50 47
1950.0 50 74 62 45 60 57 41 45 50 43
1990.0 34 39 46 45 61 79 81 74 69 59
2030.0 62 60 64 79 80 75 73 80 71 65
2070.0 73 65 53 48 51 51 53 62 56 65
2110.0 72 68 57 46 46 50 65 68 73 72
2150.0 59 53 55 62 66 65 73 77 80 85
2190.0 66 54 53 51 52 45 40 48 55 52
2230.0 49 36 27 33 32 43 50 50 52 51
2270.0 46 42 65 74 61 51 46 44 40 39
2310.0 46 50 60 59 43 48 55 44 49 58
2350.0 62 56 36 21 42 49 49 61 61 58
2390.0 59 68 66 65 55 44 41 47 55 57
2430.0 53 49 47 40 35 38 38 37 27 26
2470.0 8 4 20 24 23 38 36 19 19 34
2510.0 29 26 37 22 41 59 53 65 60 40
2550.0 14 13 30 24 30 46 62 61 47 42
2590.0 50 75 77 68 63 63 63 87 102 98
2630.0 82 71 81 69 64 83 87 101 121 112
2670.0 101 105 117 123 133 128 127 129 117 118
2710.0 119 123 120 116 112 120 142 169 191 183
2750.0 169 162 182 191 188 211 224 209 214 222
2790.0 255 286 325 366 390 455 534 599 666 776
2830.0 917 1097 1341 1606 1910 2257 2603 2960 3315 3641
2870.0 3933 4191 4467 4630 4618 4486 4272 4107 4090 4240
2910.0 4557 5068 5781 6673 7657 8620 9448 9953 10000 9654
2950.0 9150 8756 8700 9062 9524 9531 8925 7738 6106 4587
2990.0 3496 2762 2263 1902 1674 1526 1406 1295 1160 1011
3030.0 882 779 693 613 529 460 423 383 322 286
3070.0 288 289 283 301 319 310 277 253 245 260
3110.0 230 190 205 217 165 126 167 204 191 153
3150.0 152 157 159 169 166 160 128 101 94 94
3190.0 107 83 64 80 84 78 38 24 49 62
3230.0 56 9 18 35 37 54 46 19 12 30
3270.0 40 43 44 54 40 1 45 34 20 71
3310.0 77 85 83 80 66 24 2 30 71 81
3350.0 66 57 64 59 51 95 107 56 65 93
3390.0 81 94 115 90 91 96 83 79 66 51
3430.0 84 104 81 64 82 117 102 74 75 56
3470.0 51 85 100 51 11 18 47 41 32 75
3510.0 87 66 41 37 47 34 55 65 74 102
3550.0 95 102 68 55 75 36 34 67 81 52
3590.0 7 69 136 120 81 46 57 45 40 58
3630.0 52 30 30 61 56 10 28 72 61 62
3670.0 91 86 65 87 104 76 79 71 50 38
3710.0 70 114 112 93 68 52 34 31 19 26
3750.0 56 33 79 95 89 104 95 114 84 31
3790.0 31 70 84 82 59 75 91 70 49 47
3830.0 63 43 28 78 96
##END=
