##TITLE=4-Methyl-1-pentyne
##JCAMP-DX=4.24
##DATA TYPE=INFRARED SPECTRUM
##ORIGIN=NIST Mass Spectrometry Data Center
##OWNER=NIST Standard Reference Data Program
Collection (C) 2009 copyright by the U.S. Secretary of Commerce
on behalf of the United States of America. All rights reserved.
##CAS REGISTRY NO=7154-75-8
##MOLFORM=C 6 H 10
##$NIST SOURCE=MSDC-IR
##SPECTROMETER/DATA SYSTEM=HP-GC/MS/IRD
##STATE=gas
##XUNITS=1/CM
##YUNITS=ABSORBANCE
##XFACTOR=1.0
##YFACTOR=0.000006100
##DELTAX=4.0
##FIRSTX=550.0
##LASTX=3846.0
##FIRSTY=0.000244
##MAXX=3846
##MINX=550
##MAXY=0.061
##MINY=0
##NPOINTS=825
##XYDATA=(X++(Y..Y))
550.0 40 52 61 68 70 79 108 148 193 255
590.0 303 403 550 777 1102 1631 2353 3326 4808 7360
630.0 9289 10000 9029 6564 4633 3153 2086 1365 875 567
670.0 378 254 181 131 98 84 72 54 57 60
710.0 64 50 48 52 45 39 38 39 47 52
750.0 57 58 61 79 89 83 85 98 108 123
790.0 127 124 132 144 149 147 139 121 103 99
830.0 94 72 51 47 53 61 58 56 67 79
870.0 77 71 79 80 81 85 78 71 67 70
910.0 75 81 86 95 102 105 112 118 116 109
950.0 111 121 134 150 158 149 135 125 119 104
990.0 89 70 44 32 26 25 17 6 15 22
1030.0 20 25 35 34 21 18 21 23 21 31
1070.0 41 49 73 99 122 146 186 224 238 248
1110.0 237 230 214 179 162 156 143 146 163 194
1150.0 250 323 389 421 424 414 391 361 310 237
1190.0 182 158 155 164 191 221 290 413 588 842
1230.0 1200 1626 1966 2113 2090 2124 2168 1918 1532 1183
1270.0 905 720 617 553 505 465 400 322 264 232
1310.0 221 225 249 287 333 386 444 478 497 532
1350.0 557 575 617 673 732 775 850 984 1075 1065
1390.0 1019 921 794 673 536 436 394 402 443 498
1430.0 571 667 746 820 923 1006 1046 1069 1127 1195
1470.0 1170 1039 901 790 679 556 444 340 255 198
1510.0 153 119 97 83 72 64 55 58 60 55
1550.0 54 58 63 53 48 48 48 50 42 39
1590.0 42 39 37 39 42 41 42 42 41 40
1630.0 40 42 39 36 37 42 47 42 39 42
1670.0 42 43 47 46 42 35 40 47 40 33
1710.0 31 33 33 28 22 20 26 26 20 20
1750.0 23 22 18 17 20 23 20 14 15 19
1790.0 19 21 20 21 19 13 15 17 15 15
1830.0 13 12 13 12 10 10 14 13 9 9
1870.0 10 11 10 12 11 10 7 5 5 8
1910.0 8 4 0 0 3 1 2 3 2 0
1950.0 1 1 0 1 4 6 2 0 0 0
1990.0 0 2 1 0 2 1 2 5 4 7
2030.0 5 3 2 3 4 4 6 10 14 19
2070.0 24 33 43 61 89 127 178 236 298 355
2110.0 403 434 437 410 368 307 229 146 79 48
2150.0 28 20 18 13 12 14 17 18 16 17
2190.0 18 16 14 7 6 10 12 16 16 12
2230.0 11 9 11 11 7 15 20 16 16 19
2270.0 21 20 17 13 15 17 15 14 16 17
2310.0 15 15 16 16 19 21 21 15 16 15
2350.0 10 11 16 12 10 14 11 11 11 11
2390.0 12 13 16 21 18 19 19 15 22 27
2430.0 25 23 27 33 34 34 34 31 32 30
2470.0 26 30 31 23 18 21 24 21 17 15
2510.0 16 20 27 26 21 28 33 37 44 46
2550.0 49 55 62 60 56 50 48 47 46 51
2590.0 54 52 46 51 62 66 66 65 69 69
2630.0 67 77 83 82 87 94 89 87 95 101
2670.0 102 98 96 99 103 114 120 122 122 112
2710.0 109 113 118 130 144 157 165 172 176 179
2750.0 181 178 165 159 161 165 162 156 163 174
2790.0 182 197 214 232 255 282 311 349 402 470
2830.0 540 599 654 705 758 827 910 1034 1236 1520
2870.0 1824 2071 2260 2439 2655 2877 3061 3246 3486 3733
2910.0 4051 4463 4764 4950 5043 5147 5293 5386 5493 5674
2950.0 5970 6447 7127 7975 8266 7852 7316 6657 5750 4610
2990.0 3425 2299 1457 953 670 494 392 331 285 259
3030.0 243 232 228 220 211 213 215 208 207 198
3070.0 190 193 188 173 166 169 170 167 166 158
3110.0 154 153 145 145 138 142 144 134 126 121
3150.0 124 131 129 136 149 145 151 153 145 150
3190.0 152 143 134 133 128 122 126 120 107 101
3230.0 102 99 100 108 114 125 142 160 181 210
3270.0 263 345 419 487 612 796 1067 1311 1436 1715
3310.0 2159 2803 3406 3286 3213 3090 2898 2915 2254 1383
3350.0 836 563 440 361 279 205 161 124 93 81
3390.0 80 69 68 69 54 60 63 52 49 41
3430.0 39 33 31 36 30 30 27 26 36 31
3470.0 22 30 38 33 27 30 20 9 14 18
3510.0 19 19 23 19 6 9 23 27 22 19
3550.0 12 12 24 31 26 22 20 21 19 20
3590.0 21 13 16 19 24 26 17 19 19 29
3630.0 28 20 23 27 36 39 32 19 22 34
3670.0 36 32 30 26 31 31 20 20 27 23
3710.0 17 24 23 17 12 11 21 42 40 35
3750.0 41 30 25 35 32 34 38 40 39 29
3790.0 26 31 32 38 48 41 32 33 33 34
3830.0 27 28 38 36 37
##END=
