##TITLE=1-Pentyne
##JCAMP-DX=4.24
##DATA TYPE=INFRARED SPECTRUM
##ORIGIN=NIST Mass Spectrometry Data Center
##OWNER=NIST Standard Reference Data Program
Collection (C) 2009 copyright by the U.S. Secretary of Commerce
on behalf of the United States of America. All rights reserved.
##CAS REGISTRY NO=627-19-0
##MOLFORM=C 5 H 8
##$NIST SOURCE=MSDC-IR
##SPECTROMETER/DATA SYSTEM=HP-GC/MS/IRD
##STATE=gas
##XUNITS=1/CM
##YUNITS=ABSORBANCE
##XFACTOR=1.0
##YFACTOR=0.000006400
##DELTAX=4.0
##FIRSTX=550.0
##LASTX=3846.0
##FIRSTY=0.001165
##MAXX=3846
##MINX=550
##MAXY=0.064
##MINY=0
##NPOINTS=825
##XYDATA=(X++(Y..Y))
550.0 182 155 129 96 77 97 122 151 180 222
590.0 273 372 548 763 1095 1608 2334 3398 4836 6522
630.0 8725 10000 8794 6976 5238 3619 2410 1566 1018 660
670.0 434 302 209 141 101 75 59 48 34 32
710.0 26 23 22 22 24 32 48 42 44 56
750.0 52 58 64 57 54 54 46 45 41 31
790.0 19 3 6 14 6 11 20 32 43 43
830.0 50 57 61 67 76 90 100 111 113 116
870.0 123 120 112 110 100 89 86 84 87 89
910.0 103 124 120 116 122 120 117 113 106 92
950.0 73 59 48 38 33 21 11 14 17 13
990.0 10 13 14 9 12 19 22 24 22 23
1030.0 30 30 26 34 41 48 62 81 98 106
1070.0 114 127 128 128 138 131 113 91 66 54
1110.0 53 51 40 29 20 17 19 14 4 3
1150.0 3 3 15 14 5 11 19 20 19 18
1190.0 24 40 59 78 102 142 199 282 411 634
1230.0 952 1307 1598 1720 1697 1736 1836 1790 1623 1326
1270.0 973 682 481 381 328 281 228 191 184 196
1310.0 223 270 319 352 379 397 404 423 408 362
1350.0 339 305 256 219 214 230 254 283 295 297
1390.0 308 340 358 332 302 289 303 337 384 434
1430.0 492 553 619 670 708 750 782 768 735 692
1470.0 642 581 517 466 409 349 293 242 202 171
1510.0 138 112 98 86 75 64 54 52 51 48
1550.0 42 43 51 48 42 43 38 33 32 28
1590.0 30 30 23 22 26 29 29 26 26 21
1630.0 16 20 17 14 18 21 18 12 15 16
1670.0 17 15 10 9 7 5 9 11 9 6
1710.0 5 12 18 8 3 5 10 8 5 7
1750.0 10 7 2 4 5 4 4 1 0 5
1790.0 8 5 4 1 3 5 5 2 0 1
1830.0 5 6 2 4 6 7 9 7 6 10
1870.0 10 10 14 16 12 10 8 7 7 1
1910.0 3 10 9 7 9 6 0 3 11 11
1950.0 9 11 13 13 14 11 9 11 11 10
1990.0 11 8 6 6 10 6 3 9 8 7
2030.0 6 7 11 11 8 9 14 15 14 19
2070.0 27 36 55 73 96 127 167 215 264 310
2110.0 344 365 372 363 340 302 253 187 120 69
2150.0 43 31 24 17 14 13 9 8 9 11
2190.0 9 9 10 8 8 10 11 11 9 8
2230.0 7 8 7 4 1 4 12 10 7 7
2270.0 6 8 10 8 8 11 13 11 12 17
2310.0 18 17 16 20 22 20 17 12 10 12
2350.0 11 9 11 19 20 17 14 12 15 18
2390.0 16 8 4 9 14 17 16 16 18 18
2430.0 19 20 18 18 18 15 11 10 11 9
2470.0 8 7 8 7 8 11 11 6 7 14
2510.0 14 10 11 15 17 18 20 22 17 15
2550.0 20 20 17 22 24 20 19 23 25 26
2590.0 28 27 26 27 34 35 33 34 30 34
2630.0 42 44 48 53 56 57 58 65 74 78
2670.0 74 78 83 84 90 99 104 104 97 85
2710.0 75 74 77 80 85 89 91 96 103 111
2750.0 116 117 117 124 126 122 128 135 143 146
2790.0 151 167 180 195 208 224 251 282 316 355
2830.0 398 451 516 590 668 745 845 978 1137 1325
2870.0 1529 1711 1868 1953 1989 2068 2163 2225 2279 2348
2910.0 2454 2635 2894 3183 3516 3867 4151 4351 4586 4930
2950.0 5075 5024 5052 5093 5206 5303 4784 4250 4060 3732
2990.0 3352 2815 2199 1657 1255 975 768 611 493 400
3030.0 341 300 262 236 220 209 197 191 189 185
3070.0 180 170 164 160 154 152 136 129 133 128
3110.0 123 125 123 120 126 126 125 122 119 116
3150.0 109 97 86 87 93 91 80 76 80 75
3190.0 72 74 71 80 80 77 80 71 64 66
3230.0 65 65 77 87 87 97 122 152 180 218
3270.0 277 350 429 510 630 811 1055 1286 1428 1674
3310.0 2078 2639 3151 3057 2802 2572 2496 2730 2419 1680
3350.0 1045 658 481 382 310 245 184 131 94 67
3390.0 51 44 38 35 33 31 26 28 32 30
3430.0 28 27 24 25 31 32 27 29 34 33
3470.0 29 25 27 30 29 23 19 22 25 22
3510.0 14 14 14 11 15 19 14 16 15 16
3550.0 17 5 2 7 13 16 9 2 10 17
3590.0 19 18 14 9 14 16 14 16 21 25
3630.0 25 25 30 20 15 27 28 17 13 21
3670.0 29 32 34 31 29 35 33 30 28 33
3710.0 41 38 36 35 46 47 40 39 38 44
3750.0 50 48 40 41 39 34 38 35 38 37
3790.0 33 37 36 39 47 46 46 49 45 46
3830.0 40 38 50 49 44
##END=
