##TITLE=2,4-Hexadiyne
##JCAMP-DX=4.24
##DATA TYPE=INFRARED SPECTRUM
##ORIGIN=NIST Mass Spectrometry Data Center
##OWNER=NIST Standard Reference Data Program
Collection (C) 2009 copyright by the U.S. Secretary of Commerce
on behalf of the United States of America. All rights reserved.
##CAS REGISTRY NO=2809-69-0
##MOLFORM=C 6 H 6
##$NIST SOURCE=MSDC-IR
##SPECTROMETER/DATA SYSTEM=HP-GC/MS/IRD
##STATE=gas
##XUNITS=1/CM
##YUNITS=ABSORBANCE
##XFACTOR=1.0
##YFACTOR=0.000001400
##DELTAX=4.0
##FIRSTX=550.0
##LASTX=3846.0
##FIRSTY=0.000659
##MAXX=3846
##MINX=550
##MAXY=0.014
##MINY=0
##NPOINTS=825
##XYDATA=(X++(Y..Y))
550.0 471 619 896 1616 2387 3046 3508 3522 3241 2820
590.0 2158 1478 998 641 395 252 182 135 104 56
630.0 6 30 58 78 125 144 117 91 131 151
670.0 135 144 141 123 65 38 63 66 93 116
710.0 113 90 78 88 98 73 29 14 59 72
750.0 65 94 112 69 56 111 110 94 96 81
790.0 100 129 111 111 132 119 110 135 169 162
830.0 126 141 134 84 64 70 78 68 37 8
870.0 12 67 96 83 55 42 62 66 66 64
910.0 60 52 50 61 61 94 158 191 195 220
950.0 265 219 129 99 111 88 84 120 103 95
990.0 118 143 163 166 195 238 251 217 202 221
1030.0 248 243 233 247 251 253 259 224 174 193
1070.0 210 186 146 111 119 132 125 100 96 111
1110.0 112 92 62 76 112 125 102 118 124 143
1150.0 147 105 119 129 133 168 176 171 196 217
1190.0 211 217 247 269 265 277 296 330 393 422
1230.0 444 465 475 496 499 497 517 541 551 566
1270.0 580 582 583 616 662 633 589 599 631 624
1310.0 618 696 770 766 893 1120 1085 1018 1140 1309
1350.0 1450 1693 1971 2297 2813 3330 3270 2876 2772 2697
1390.0 2204 1580 1434 1448 1245 1358 1843 1644 1172 1276
1430.0 1323 1030 1030 1320 1262 1224 1706 1804 1400 1340
1470.0 1355 1262 1157 1107 1147 1177 1150 1261 1422 1293
1510.0 1074 1031 1041 970 886 987 1090 934 794 774
1550.0 690 583 614 644 563 596 655 525 433 435
1590.0 375 347 346 303 289 284 276 268 252 245
1630.0 227 214 208 181 182 190 163 147 148 130
1670.0 122 127 133 142 138 126 121 115 103 97
1710.0 104 113 110 110 117 122 128 130 120 115
1750.0 116 106 101 109 109 99 95 90 83 91
1790.0 96 84 81 82 92 92 86 93 94 89
1830.0 76 72 76 80 82 85 94 88 84 81
1870.0 76 73 66 67 58 60 64 60 68 76
1910.0 90 82 57 52 72 70 48 49 59 57
1950.0 57 54 54 55 56 62 65 68 64 50
1990.0 50 59 59 65 66 55 62 89 116 145
2030.0 194 280 366 411 410 396 352 258 168 120
2070.0 91 67 55 51 43 40 35 37 53 60
2110.0 57 52 49 76 97 112 137 163 195 218
2150.0 218 219 206 163 133 119 102 107 109 102
2190.0 134 181 248 324 376 405 419 420 349 222
2230.0 119 81 84 69 50 55 65 58 48 41
2270.0 32 37 41 43 40 34 42 53 66 75
2310.0 86 102 121 144 177 208 213 190 181 183
2350.0 180 184 183 177 176 166 164 163 154 147
2390.0 132 128 136 128 130 146 146 151 154 154
2430.0 147 144 149 160 174 168 155 168 177 153
2470.0 144 149 141 131 121 117 135 135 120 125
2510.0 135 129 117 98 83 86 84 72 66 59
2550.0 56 57 37 36 35 14 5 39 73 68
2590.0 60 57 52 47 51 62 82 81 82 96
2630.0 105 116 104 86 73 63 71 87 75 62
2670.0 59 68 70 69 89 96 87 80 106 151
2710.0 165 175 193 236 291 365 478 580 648 694
2750.0 692 629 514 388 324 285 252 220 207 210
2790.0 217 228 245 271 280 291 327 375 435 521
2830.0 631 782 954 1135 1355 1708 2207 2770 3427 3756
2870.0 3621 3526 3225 2572 1999 1642 1482 1464 1510 1734
2910.0 2275 3293 5125 7652 10000 9823 8843 9357 7825 4854
2950.0 2829 1829 1635 1407 1464 1514 1659 1939 1619 1537
2990.0 1427 1354 1513 1511 1785 1606 1370 1302 1170 1238
3030.0 1178 1268 1189 983 889 775 731 674 756 695
3070.0 578 510 435 438 417 422 367 300 272 243
3110.0 196 191 194 160 158 132 117 122 142 135
3150.0 93 94 96 101 120 153 171 182 213 236
3190.0 253 250 278 319 322 304 274 220 187 137
3230.0 99 96 87 70 63 71 47 25 47 75
3270.0 52 53 71 50 44 71 76 61 59 49
3310.0 37 30 44 45 38 49 47 66 78 86
3350.0 80 57 51 59 74 74 70 72 80 92
3390.0 69 59 72 57 27 54 55 18 18 43
3430.0 51 37 35 37 45 44 59 94 115 116
3470.0 137 145 120 107 83 64 48 23 19 42
3510.0 50 18 6 28 29 9 12 21 4 9
3550.0 26 28 22 35 52 41 30 18 35 49
3590.0 43 58 68 52 38 34 41 54 52 43
3630.0 41 75 70 66 91 70 49 63 36 35
3670.0 40 0 19 70 55 18 29 38 54 58
3710.0 47 60 47 26 19 27 44 14 4 24
3750.0 36 4 49 89 65 40 16 27 57 59
3790.0 74 101 85 83 94 107 100 67 59 73
3830.0 95 97 94 105 119
##END=
