##TITLE=Bromocyclopropane
##JCAMP-DX=4.24
##DATA TYPE=INFRARED SPECTRUM
##ORIGIN=NIST Mass Spectrometry Data Center
##OWNER=NIST Standard Reference Data Program
Collection (C) 2009 copyright by the U.S. Secretary of Commerce
on behalf of the United States of America. All rights reserved.
##CAS REGISTRY NO=4333-56-6
##MOLFORM=C 3 H 5 Br
##$NIST SOURCE=MSDC-IR
##SPECTROMETER/DATA SYSTEM=HP-GC/MS/IRD
##STATE=gas
##XUNITS=1/CM
##YUNITS=ABSORBANCE
##XFACTOR=1.0
##YFACTOR=0.000001200
##DELTAX=4.0
##FIRSTX=550.0
##LASTX=3846.0
##FIRSTY=0.002687
##MAXX=3846
##MINX=550
##MAXY=0.012
##MINY=0
##NPOINTS=825
##XYDATA=(X++(Y..Y))
550.0 2239 2300 2381 2023 1090 362 72 22 31 84
590.0 99 107 172 146 100 90 64 69 118 157
630.0 164 86 57 101 91 37 30 60 27 0
670.0 8 32 68 81 72 70 82 86 93 82
710.0 50 51 99 127 146 144 115 161 207 276
750.0 383 462 592 746 900 1003 1052 1154 1256 1315
790.0 1404 1526 1575 1466 1341 1409 1404 1321 1227 1111
830.0 1043 960 927 878 810 841 858 838 846 863
870.0 748 621 601 581 516 455 398 364 389 410
910.0 479 531 519 560 567 557 618 616 558 536
950.0 504 454 402 345 311 322 322 334 359 388
990.0 495 645 823 1110 1490 1937 2382 2723 3018 3212
1030.0 3385 3638 3535 3235 2906 2490 2117 1777 1438 1064
1070.0 763 596 518 473 409 325 256 226 186 123
1110.0 138 158 120 81 83 134 175 209 219 181
1150.0 150 166 151 125 124 96 107 138 135 161
1190.0 190 210 250 277 336 429 535 629 695 777
1230.0 918 1270 1921 2972 4674 6974 9140 10000 9459 9355
1270.0 9350 9626 9259 6583 3597 1684 803 473 347 278
1310.0 240 229 224 233 227 202 174 158 164 176
1350.0 200 190 177 173 167 168 180 196 210 229
1390.0 264 315 375 457 541 620 712 820 899 947
1430.0 1058 1234 1383 1483 1447 1387 1343 1227 1151 953
1470.0 685 492 360 266 204 180 156 125 97 80
1510.0 87 93 96 105 112 114 119 121 119 112
1550.0 107 119 103 96 115 139 139 135 141 145
1590.0 153 139 124 131 135 126 128 120 113 115
1630.0 106 85 80 100 99 86 84 66 50 56
1670.0 61 72 103 112 115 113 108 112 134 162
1710.0 171 178 195 198 182 164 160 157 142 127
1750.0 106 89 91 101 106 119 142 175 197 216
1790.0 227 235 248 251 241 222 202 181 170 164
1830.0 155 142 147 142 140 155 169 190 204 209
1870.0 236 262 285 316 335 334 324 329 304 284
1910.0 284 280 249 210 190 180 179 170 161 162
1950.0 163 147 132 137 127 114 116 116 107 97
1990.0 103 103 91 90 96 91 89 106 125 130
2030.0 136 153 172 199 218 229 245 270 295 309
2070.0 318 324 331 340 322 287 283 279 264 249
2110.0 245 244 228 217 223 236 223 193 170 166
2150.0 160 149 138 127 127 114 123 138 124 125
2190.0 132 142 157 151 154 166 169 176 190 175
2230.0 172 181 170 178 178 154 114 89 92 104
2270.0 105 98 72 69 91 104 96 76 97 135
2310.0 139 113 95 102 100 96 84 84 82 62
2350.0 69 83 87 73 83 94 86 65 32 40
2390.0 65 83 85 83 71 45 43 62 66 53
2430.0 40 55 68 78 91 88 103 109 104 115
2470.0 110 94 114 120 109 110 110 113 108 99
2510.0 88 77 89 78 75 85 72 42 46 35
2550.0 30 50 50 48 38 41 58 70 75 73
2590.0 62 52 57 66 58 63 70 61 49 39
2630.0 66 90 86 67 71 66 43 52 76 78
2670.0 68 76 52 45 63 50 42 32 40 70
2710.0 63 44 47 50 51 56 80 77 35 29
2750.0 44 32 21 32 9 3 32 31 24 52
2790.0 61 46 66 53 40 61 57 54 47 42
2830.0 75 128 128 121 139 143 138 138 151 112
2870.0 103 132 134 161 159 113 130 143 109 125
2910.0 145 109 76 92 111 110 107 123 146 162
2950.0 172 166 174 215 235 261 310 429 576 657
2990.0 789 958 1165 1449 1785 2137 2350 2296 2220 2285
3030.0 2310 2209 1910 1525 1226 1017 910 873 829 824
3070.0 877 950 1108 1329 1489 1605 1610 1601 1564 1443
3110.0 1420 1198 870 614 420 327 280 247 187 136
3150.0 119 91 41 26 47 71 81 51 34 57
3190.0 57 47 59 63 50 36 52 68 44 26
3230.0 15 11 25 57 78 39 22 49 53 48
3270.0 49 57 41 52 91 77 72 57 48 36
3310.0 37 23 17 18 33 63 40 74 99 80
3350.0 45 66 66 29 52 71 72 70 81 105
3390.0 117 137 119 71 66 55 51 55 52 41
3430.0 27 27 58 95 73 60 91 71 58 90
3470.0 86 69 73 96 125 109 54 55 75 27
3510.0 43 98 73 39 11 27 47 69 112 93
3550.0 70 76 68 47 69 75 28 12 31 64
3590.0 75 61 48 46 46 41 74 55 24 57
3630.0 68 92 111 99 109 109 36 7 60 49
3670.0 41 52 55 69 66 34 37 87 87 45
3710.0 21 48 65 105 114 88 71 76 62 40
3750.0 63 75 63 27 43 67 72 115 111 89
3790.0 94 92 83 101 112 106 96 93 94 120
3830.0 131 113 108 111 123
##END=
