##TITLE=4-Penten-2-ol
##JCAMP-DX=4.24
##DATA TYPE=INFRARED SPECTRUM
##ORIGIN=NIST Mass Spectrometry Data Center
##OWNER=NIST Standard Reference Data Program
Collection (C) 2009 copyright by the U.S. Secretary of Commerce
on behalf of the United States of America. All rights reserved.
##CAS REGISTRY NO=625-31-0
##MOLFORM=C 5 H 10 O
##$NIST SOURCE=MSDC-IR
##SPECTROMETER/DATA SYSTEM=HP-GC/MS/IRD
##STATE=gas
##XUNITS=1/CM
##YUNITS=ABSORBANCE
##XFACTOR=1.0
##YFACTOR=0.000001600
##DELTAX=4.0
##FIRSTX=550.0
##LASTX=3846.0
##FIRSTY=0.000733
##MAXX=3846
##MINX=550
##MAXY=0.016
##MINY=0
##NPOINTS=825
##XYDATA=(X++(Y..Y))
550.0 458 309 266 320 274 240 294 304 264 300
590.0 372 449 541 569 591 690 779 886 987 995
630.0 1008 986 916 796 664 583 499 461 467 478
670.0 425 388 415 368 341 310 242 228 218 188
710.0 177 156 111 41 14 46 62 74 61 12
750.0 14 38 42 62 88 95 126 177 209 258
790.0 300 347 424 519 590 653 767 857 981 1153
830.0 1258 1359 1413 1433 1446 1416 1306 1231 1204 1206
870.0 1253 1353 1564 1825 2121 2502 3024 3622 4271 5004
910.0 5727 6391 6821 6889 6768 6427 5895 5264 4627 4097
950.0 3676 3398 3222 3111 3054 3055 3126 3266 3510 3763
990.0 3989 4210 4416 4562 4622 4614 4578 4528 4477 4448
1030.0 4467 4511 4557 4608 4667 4720 4810 4925 5017 5111
1070.0 5212 5315 5438 5527 5583 5630 5659 5661 5597 5454
1110.0 5316 5154 4995 4839 4669 4486 4285 4028 3714 3388
1150.0 3056 2697 2369 2114 1888 1721 1600 1540 1526 1531
1190.0 1617 1756 1910 2099 2298 2500 2691 2849 3001 3123
1230.0 3234 3335 3450 3545 3591 3617 3616 3532 3410 3261
1270.0 3036 2809 2587 2383 2211 2066 1929 1826 1732 1656
1310.0 1597 1572 1604 1659 1730 1858 2042 2259 2505 2778
1350.0 3058 3352 3617 3853 4104 4359 4585 4743 4803 4764
1390.0 4577 4245 3835 3431 3072 2761 2519 2363 2310 2318
1430.0 2325 2361 2378 2372 2324 2232 2070 1839 1602 1384
1470.0 1194 1028 870 720 597 491 412 351 294 253
1510.0 227 213 222 227 220 218 216 202 197 194
1550.0 185 178 157 165 159 131 130 139 151 162
1590.0 167 189 231 289 348 426 551 724 963 1258
1630.0 1536 1710 1805 1836 1766 1623 1355 971 625 404
1670.0 287 217 176 134 102 104 96 79 68 51
1710.0 40 34 34 56 62 53 46 52 53 49
1750.0 46 52 42 32 39 43 39 37 47 59
1790.0 64 70 85 86 99 136 192 259 337 426
1830.0 491 536 569 580 562 517 448 354 272 217
1870.0 164 123 99 78 77 79 55 41 47 38
1910.0 40 42 40 37 38 38 31 52 53 37
1950.0 42 49 73 92 95 92 88 93 100 98
1990.0 78 60 53 43 34 31 41 47 46 45
2030.0 36 31 37 40 39 32 28 25 16 20
2070.0 29 30 29 26 23 18 14 17 24 18
2110.0 6 14 28 38 36 29 36 27 0 8
2150.0 22 18 21 26 30 15 4 10 15 26
2190.0 37 38 35 36 24 19 20 22 25 26
2230.0 31 20 18 26 21 7 6 12 18 22
2270.0 19 11 14 28 35 32 25 27 20 15
2310.0 20 28 39 35 27 33 32 24 24 19
2350.0 26 40 39 13 2 17 33 43 45 30
2390.0 14 14 35 41 29 29 31 44 50 42
2430.0 35 29 24 35 46 35 42 43 45 47
2470.0 31 38 57 53 40 31 27 21 18 36
2510.0 46 43 47 39 33 40 42 45 45 45
2550.0 34 32 50 57 54 62 77 74 75 78
2590.0 95 117 123 119 117 124 131 133 144 150
2630.0 157 172 171 166 178 197 205 216 212 196
2670.0 213 219 218 222 218 208 197 207 213 201
2710.0 194 195 199 197 204 219 230 245 258 265
2750.0 286 287 287 299 310 325 345 363 361 387
2790.0 426 459 490 537 606 680 765 864 968 1079
2830.0 1226 1392 1545 1710 1893 2115 2372 2659 3024 3434
2870.0 3851 4254 4651 5027 5390 5735 6081 6423 6761 7091
2910.0 7394 7661 7894 8035 8042 7914 7681 7360 7015 6776
2950.0 6651 6652 6876 7399 8192 9099 9830 10000 9638 9070
2990.0 8310 7341 6213 5018 4001 3237 2688 2272 1930 1637
3030.0 1408 1252 1146 1110 1128 1184 1307 1475 1702 1988
3070.0 2367 2825 3158 3259 3298 3153 2830 2535 2032 1481
3110.0 1060 769 578 465 395 348 296 271 258 240
3150.0 232 230 210 190 191 175 158 167 150 152
3190.0 158 159 164 146 142 127 102 96 82 69
3230.0 56 55 60 50 52 42 8 22 41 26
3270.0 58 75 44 45 55 32 30 64 66 43
3310.0 51 63 67 61 70 81 76 58 53 71
3350.0 73 53 48 69 61 57 67 78 89 70
3390.0 88 119 96 87 111 121 93 82 103 141
3430.0 133 89 92 114 136 151 145 148 116 123
3470.0 157 121 90 99 105 98 81 78 67 51
3510.0 79 88 94 112 110 112 131 148 127 84
3550.0 93 128 120 118 124 124 128 150 169 180
3590.0 235 308 390 532 696 827 937 1043 1167 1314
3630.0 1438 1535 1618 1745 1870 1842 1773 1689 1546 1375
3670.0 1163 898 665 514 386 296 273 244 189 159
3710.0 147 120 117 117 72 63 93 108 110 89
3750.0 79 84 81 80 75 79 83 82 75 72
3790.0 84 91 86 94 99 107 106 80 62 73
3830.0 84 86 90 113 126
##END=
