##TITLE=1-Chloro-2-methylbutane
##JCAMP-DX=4.24
##DATA TYPE=INFRARED SPECTRUM
##ORIGIN=NIST Mass Spectrometry Data Center
##OWNER=NIST Standard Reference Data Program
Collection (C) 2009 copyright by the U.S. Secretary of Commerce
on behalf of the United States of America. All rights reserved.
##CAS REGISTRY NO=616-13-7
##MOLFORM=C 5 H 11 Cl
##$NIST SOURCE=MSDC-IR
##SPECTROMETER/DATA SYSTEM=HP-GC/MS/IRD
##STATE=gas
##XUNITS=1/CM
##YUNITS=ABSORBANCE
##XFACTOR=1.0
##YFACTOR=0.000002800
##DELTAX=4.0
##FIRSTX=550.0
##LASTX=3846.0
##FIRSTY=0.000190
##MAXX=3846
##MINX=550
##MAXY=0.028
##MINY=0
##NPOINTS=825
##XYDATA=(X++(Y..Y))
550.0 68 104 87 85 79 86 75 81 86 70
590.0 62 61 49 28 15 3 2 16 13 14
630.0 30 44 51 62 78 87 101 104 144 238
670.0 351 463 556 643 734 754 693 616 521 481
710.0 560 723 991 1371 1763 2081 2279 2343 2254 2019
750.0 1673 1297 1048 960 981 1024 1019 989 895 787
790.0 678 534 429 344 273 234 214 194 150 109
830.0 87 60 43 53 47 47 62 65 75 91
870.0 108 123 139 177 195 190 205 224 271 322
910.0 360 406 452 457 418 373 331 272 205 141
950.0 115 141 187 233 292 336 363 372 350 323
990.0 288 271 252 232 232 232 211 195 185 152
1030.0 104 72 60 54 28 3 13 22 15 14
1070.0 27 40 61 79 77 83 76 61 51 54
1110.0 58 49 47 51 57 67 90 113 133 138
1150.0 148 171 182 181 176 175 163 146 144 164
1190.0 187 209 244 269 268 278 270 244 240 236
1230.0 247 269 315 407 493 588 699 793 881 952
1270.0 1005 1039 1049 1045 1067 1081 1069 1055 1005 931
1310.0 860 765 676 610 548 502 475 470 466 460
1350.0 446 430 455 511 605 734 891 1020 1100 1157
1390.0 1162 1058 865 658 486 374 321 305 332 418
1430.0 569 768 985 1217 1461 1674 1832 1907 1913 1818
1470.0 1641 1421 1183 951 726 546 406 305 236 190
1510.0 153 130 107 95 93 84 81 86 80 70
1550.0 75 78 68 69 67 66 64 60 56 48
1590.0 49 54 47 44 49 49 51 56 59 59
1630.0 62 66 65 68 71 65 63 67 68 69
1670.0 65 64 61 59 59 50 54 58 49 41
1710.0 42 45 42 32 37 44 41 37 30 23
1750.0 21 26 27 26 26 27 28 23 25 19
1790.0 17 19 12 19 25 24 28 20 15 14
1830.0 11 17 29 25 14 18 20 23 28 23
1870.0 20 21 18 14 15 16 17 22 23 13
1910.0 6 10 17 14 11 5 5 5 0 2
1950.0 8 10 3 1 7 8 6 11 7 1
1990.0 6 5 3 4 4 7 14 19 19 15
2030.0 10 13 11 9 8 9 13 22 21 11
2070.0 8 9 13 17 18 18 15 13 16 17
2110.0 19 19 12 11 16 16 16 16 8 13
2150.0 16 12 13 13 19 17 11 18 20 13
2190.0 12 6 1 4 4 3 5 8 14 12
2230.0 8 11 11 11 7 10 14 14 17 17
2270.0 21 19 11 7 9 16 15 14 19 27
2310.0 25 19 23 25 13 16 18 10 10 16
2350.0 26 31 28 26 23 19 24 18 17 22
2390.0 24 27 33 35 25 23 28 31 20 8
2430.0 18 26 24 22 26 34 37 28 19 18
2470.0 20 23 19 14 19 18 11 17 24 17
2510.0 9 12 16 15 21 27 24 21 15 11
2550.0 23 34 37 34 28 21 29 46 49 46
2590.0 45 49 57 55 47 50 56 61 67 64
2630.0 55 51 53 57 64 68 69 62 61 59
2670.0 62 75 71 73 81 89 94 100 105 100
2710.0 107 106 104 111 121 140 170 177 172 178
2750.0 190 194 189 186 177 179 177 174 185 201
2790.0 217 229 248 262 288 314 340 363 389 442
2830.0 496 558 655 762 915 1129 1395 1716 2090 2503
2870.0 2924 3286 3537 3640 3658 3653 3610 3536 3472 3510
2910.0 3670 3922 4233 4578 4958 5322 5660 5973 6276 6590
2950.0 6931 7411 8076 8869 9604 10000 9906 9374 8505 7277
2990.0 5894 4612 3488 2593 1960 1500 1143 901 729 609
3030.0 537 488 452 428 416 406 387 363 346 334
3070.0 341 339 316 305 295 285 270 266 266 250
3110.0 228 212 201 190 188 175 178 181 172 175
3150.0 183 191 181 162 161 163 143 122 116 123
3190.0 121 98 85 85 89 88 79 70 52 44
3230.0 46 42 23 23 38 42 46 44 46 47
3270.0 43 28 21 30 19 10 13 22 34 28
3310.0 27 45 39 28 45 42 38 39 38 37
3350.0 30 36 36 18 30 45 37 36 35 40
3390.0 37 21 13 24 40 30 42 30 13 18
3430.0 22 43 33 19 23 19 13 25 33 19
3470.0 18 27 26 26 25 19 10 12 18 15
3510.0 26 34 35 34 30 37 38 44 31 13
3550.0 7 11 32 26 7 13 34 32 16 5
3590.0 1 15 19 21 27 29 26 13 13 12
3630.0 23 27 17 28 32 19 18 23 14 19
3670.0 26 21 14 11 34 53 37 36 31 32
3710.0 47 32 24 30 20 23 37 25 16 18
3750.0 30 31 23 36 42 30 29 18 7 22
3790.0 28 33 38 52 64 55 28 15 22 19
3830.0 24 35 19 22 37
##END=
