##TITLE=Allylethylamine
##JCAMP-DX=4.24
##DATA TYPE=INFRARED SPECTRUM
##ORIGIN=NIST Mass Spectrometry Data Center
##OWNER=NIST Standard Reference Data Program
Collection (C) 2009 copyright by the U.S. Secretary of Commerce
on behalf of the United States of America. All rights reserved.
##CAS REGISTRY NO=2424-02-4
##MOLFORM=C 5 H 11 N
##$NIST SOURCE=MSDC-IR
##SPECTROMETER/DATA SYSTEM=HP-GC/MS/IRD
##STATE=gas
##XUNITS=1/CM
##YUNITS=ABSORBANCE
##XFACTOR=1.0
##YFACTOR=0.000001500
##DELTAX=4.0
##FIRSTX=550.0
##LASTX=3846.0
##FIRSTY=0.001505
##MAXX=3846
##MINX=550
##MAXY=0.015
##MINY=0
##NPOINTS=825
##XYDATA=(X++(Y..Y))
550.0 1003 940 389 593 613 613 681 719 748 782
590.0 798 791 841 960 1023 1064 1132 1209 1309 1340
630.0 1364 1435 1455 1493 1633 1761 1855 1882 1931 2014
670.0 2136 2290 2396 2486 2561 2591 2616 2638 2645 2665
710.0 2605 2500 2435 2331 2229 2122 1968 1811 1615 1421
750.0 1272 1125 943 804 706 625 565 484 406 338
790.0 286 249 245 241 205 158 144 131 119 131
830.0 94 77 105 86 81 120 132 151 196 244
870.0 315 409 538 714 925 1202 1592 2052 2603 3248
910.0 3872 4245 4436 4428 4116 3619 3030 2515 2098 1791
950.0 1592 1499 1456 1426 1459 1566 1696 1910 2173 2342
990.0 2418 2457 2445 2348 2131 1815 1540 1315 1118 957
1030.0 864 769 726 711 746 821 871 905 949 979
1070.0 1021 1101 1154 1209 1305 1452 1728 2070 2439 2895
1110.0 3398 3903 4438 4986 5449 5790 5977 6000 5886 5587
1150.0 5064 4386 3663 2991 2444 1994 1642 1351 1098 890
1190.0 690 541 455 427 392 346 346 347 354 387
1230.0 403 405 413 415 436 472 507 556 590 627
1270.0 684 753 820 867 893 941 1010 1059 1133 1270
1310.0 1417 1546 1697 1849 1937 1979 1995 1976 1949 1877
1350.0 1799 1723 1678 1719 1801 1899 2005 2078 2109 2123
1390.0 2049 1870 1690 1607 1627 1692 1746 1820 1936 2100
1430.0 2316 2557 2854 3208 3547 3837 3972 3902 3659 3296
1470.0 2876 2410 1918 1470 1155 925 726 548 414 304
1510.0 240 199 150 124 127 108 73 64 53 35
1550.0 40 50 35 20 34 38 12 5 25 46
1590.0 61 69 97 132 173 220 266 340 467 623
1630.0 800 956 1037 1051 1001 940 825 629 429 284
1670.0 189 131 109 84 60 44 16 7 28 28
1710.0 10 2 0 3 0 5 11 9 17 20
1750.0 11 6 20 35 34 40 44 31 29 43
1790.0 43 33 57 65 69 115 159 208 274 317
1830.0 364 415 430 428 428 399 337 269 204 151
1870.0 114 106 84 61 61 60 47 37 46 44
1910.0 53 58 43 36 35 37 39 32 24 20
1950.0 37 51 57 69 83 86 81 81 79 79
1990.0 79 76 58 55 68 66 46 40 48 54
2030.0 48 39 33 36 45 43 38 39 45 44
2070.0 38 45 55 43 61 89 82 56 51 56
2110.0 73 91 90 85 88 109 113 100 80 75
2150.0 82 71 69 86 89 83 75 76 75 88
2190.0 100 99 97 98 107 91 65 65 84 106
2230.0 115 108 83 79 100 111 104 96 110 106
2270.0 95 106 120 116 101 84 78 79 80 86
2310.0 75 67 71 62 83 102 104 105 99 90
2350.0 78 69 75 81 85 101 108 98 81 82
2390.0 91 93 100 97 88 89 93 93 82 86
2430.0 93 103 103 83 82 86 97 109 98 78
2470.0 77 106 115 96 102 112 108 101 95 86
2510.0 90 90 105 123 117 129 136 122 124 121
2550.0 120 162 178 180 184 189 209 210 209 231
2590.0 252 279 291 300 327 340 351 348 353 376
2630.0 390 406 414 422 419 433 456 479 513 560
2670.0 593 614 652 686 723 761 803 824 844 889
2710.0 936 982 1031 1072 1098 1144 1213 1295 1379 1448
2750.0 1528 1638 1806 1983 2184 2423 2698 3025 3419 3876
2790.0 4325 4820 5360 5863 6329 6748 7086 7363 7530 7555
2830.0 7494 7355 7142 6868 6575 6306 6085 5952 5869 5875
2870.0 5972 6129 6262 6396 6547 6693 6837 6876 6932 7029
2910.0 7132 7253 7388 7521 7622 7709 7773 7836 7874 7932
2950.0 8094 8428 8893 9405 9798 9999 10000 9732 9084 8114
2990.0 7074 6130 5290 4593 4016 3538 3139 2796 2500 2233
3030.0 1968 1738 1580 1505 1469 1476 1527 1598 1695 1828
3070.0 2042 2326 2602 2770 2802 2697 2555 2320 1932 1540
3110.0 1181 894 719 599 530 463 408 370 349 344
3150.0 306 276 271 279 292 284 243 229 223 207
3190.0 223 227 187 174 180 163 163 156 136 132
3230.0 149 165 123 106 148 166 111 67 87 106
3270.0 118 94 108 111 85 101 86 58 61 116
3310.0 107 61 91 115 90 100 129 140 129 115
3350.0 135 146 133 119 113 140 155 164 159 140
3390.0 140 120 93 79 100 122 99 104 135 153
3430.0 147 139 134 148 180 181 156 162 188 186
3470.0 154 131 126 150 164 155 151 143 123 112
3510.0 113 145 146 97 129 175 155 136 163 158
3550.0 99 77 116 126 109 111 115 143 157 153
3590.0 165 168 150 141 149 128 132 170 168 109
3630.0 108 169 184 191 158 127 155 140 151 198
3670.0 169 130 157 177 186 179 160 161 164 139
3710.0 143 171 181 176 155 121 139 206 211 182
3750.0 179 217 231 202 171 168 179 161 137 153
3790.0 183 169 167 183 178 158 164 167 173 184
3830.0 200 193 171 179 179
##END=
