##TITLE=1,5-Hexadiene
##JCAMP-DX=4.24
##DATA TYPE=INFRARED SPECTRUM
##ORIGIN=NIST Mass Spectrometry Data Center
##OWNER=NIST Standard Reference Data Program
Collection (C) 2009 copyright by the U.S. Secretary of Commerce
on behalf of the United States of America. All rights reserved.
##CAS REGISTRY NO=592-42-7
##MOLFORM=C 6 H 10
##$NIST SOURCE=MSDC-IR
##SPECTROMETER/DATA SYSTEM=HP-GC/MS/IRD
##STATE=gas
##XUNITS=1/CM
##YUNITS=ABSORBANCE
##XFACTOR=1.0
##YFACTOR=0.000002500
##DELTAX=4.0
##FIRSTX=550.0
##LASTX=3846.0
##FIRSTY=0.002050
##MAXX=3846
##MINX=550
##MAXY=0.025
##MINY=0
##NPOINTS=825
##XYDATA=(X++(Y..Y))
550.0 820 552 505 482 369 380 354 322 368 466
590.0 561 597 634 668 737 840 901 978 1026 1065
630.0 1139 1172 1231 1304 1311 1263 1205 1169 1101 1006
670.0 933 867 799 714 632 547 458 382 328 299
710.0 245 196 162 116 90 81 75 43 9 13
750.0 18 15 21 21 30 50 39 38 67 89
790.0 126 149 185 257 284 305 319 375 428 467
830.0 506 552 609 654 731 806 887 1018 1149 1309
870.0 1544 1830 2192 2663 3270 4063 5063 6234 7497 8637
910.0 9537 10000 9917 9544 8718 7516 6327 5339 4552 3922
950.0 3460 3128 2949 2901 2998 3205 3499 3890 4289 4583
990.0 4779 4830 4642 4298 3851 3351 2852 2402 2045 1770
1030.0 1535 1331 1149 1027 912 780 709 635 554 506
1070.0 486 481 471 438 384 359 342 332 356 373
1110.0 379 396 396 378 363 360 348 320 296 285
1150.0 251 207 189 183 187 190 171 172 171 170
1190.0 186 199 214 251 262 262 278 276 271 266
1230.0 256 266 284 301 320 314 293 282 268 230
1270.0 207 206 221 265 308 350 404 440 459 486
1310.0 509 514 510 496 488 482 476 457 410 361
1350.0 318 292 284 294 294 284 312 337 372 426
1390.0 490 571 675 809 967 1138 1304 1451 1594 1750
1430.0 1903 2017 2078 2092 2045 1927 1798 1595 1329 1095
1470.0 908 732 573 462 383 318 263 226 214 220
1510.0 208 205 213 212 209 215 220 229 227 215
1550.0 215 229 240 220 222 232 242 274 300 323
1590.0 368 435 518 620 750 932 1189 1557 2059 2682
1630.0 3340 3865 4116 4123 4015 3748 3043 2139 1434 993
1670.0 721 548 417 327 260 209 192 186 155 120
1710.0 98 94 88 73 70 70 71 67 54 61
1750.0 68 70 74 68 71 82 91 88 95 127
1790.0 157 178 213 264 335 447 615 813 985 1096
1830.0 1124 1117 1096 990 801 606 447 348 281 221
1870.0 180 149 128 114 106 98 80 72 74 74
1910.0 73 66 57 55 55 52 51 52 47 53
1950.0 70 88 101 114 144 163 159 161 164 156
1990.0 141 115 90 79 73 56 38 34 36 40
2030.0 44 43 42 44 52 52 60 64 56 50
2070.0 45 44 42 38 32 20 19 24 17 16
2110.0 22 20 20 20 14 15 22 18 19 28
2150.0 21 21 33 44 38 22 12 10 19 18
2190.0 15 26 31 25 32 36 36 42 45 51
2230.0 61 56 50 51 51 59 60 68 71 68
2270.0 63 57 50 40 30 32 39 38 34 36
2310.0 22 8 18 36 45 43 33 33 27 19
2350.0 15 20 35 32 28 38 31 18 16 20
2390.0 25 22 17 12 11 16 13 7 10 9
2430.0 0 0 4 7 19 26 26 28 35 34
2470.0 26 31 22 20 27 26 30 34 24 12
2510.0 12 23 24 18 17 18 33 40 34 27
2550.0 21 22 24 27 28 21 25 25 21 25
2590.0 22 29 37 37 39 34 31 30 28 30
2630.0 25 24 25 26 35 36 36 34 34 38
2670.0 43 56 59 39 39 60 70 74 65 50
2710.0 37 38 51 57 54 56 69 85 98 92
2750.0 100 115 121 125 136 141 130 141 152 166
2790.0 186 194 217 257 307 387 489 613 779 982
2830.0 1216 1472 1744 2015 2263 2475 2632 2738 2784 2768
2870.0 2740 2721 2720 2783 2932 3195 3600 4160 4845 5627
2910.0 6442 7212 7885 8428 8773 8879 8714 8266 7634 6952
2950.0 6245 5584 5074 4726 4540 4527 4654 4842 5004 5145
2990.0 5289 5422 5489 5367 5060 4697 4330 3883 3362 2871
3030.0 2493 2223 2098 2105 2182 2347 2565 2852 3258 3793
3070.0 4473 5332 6153 6505 6426 6196 5899 5187 3986 2856
3110.0 2049 1518 1164 915 733 578 489 428 372 336
3150.0 308 276 245 215 206 199 175 168 147 118
3190.0 108 102 87 84 85 67 51 47 52 50
3230.0 37 30 38 39 40 49 43 50 63 52
3270.0 60 73 60 44 37 49 50 29 24 33
3310.0 21 21 20 27 24 9 19 27 26 31
3350.0 48 34 10 25 39 20 15 34 50 47
3390.0 43 41 32 27 39 47 47 48 42 43
3430.0 40 42 39 36 54 52 39 57 62 53
3470.0 47 30 33 50 66 62 61 70 69 63
3510.0 70 82 79 58 34 35 47 46 47 58
3550.0 63 69 64 54 64 68 42 48 75 78
3590.0 74 60 50 46 44 59 68 67 70 60
3630.0 55 45 38 56 61 79 87 69 47 42
3670.0 61 89 106 71 58 86 82 70 59 53
3710.0 51 58 78 87 73 70 83 80 70 61
3750.0 57 66 71 68 58 42 34 40 51 46
3790.0 24 24 52 61 48 39 54 76 85 82
3830.0 69 61 65 76 71
##END=
