##TITLE=2,3-Dichloropropene
##JCAMP-DX=4.24
##DATA TYPE=INFRARED SPECTRUM
##ORIGIN=NIST Mass Spectrometry Data Center
##OWNER=NIST Standard Reference Data Program
Collection (C) 2009 copyright by the U.S. Secretary of Commerce
on behalf of the United States of America. All rights reserved.
##CAS REGISTRY NO=78-88-6
##MOLFORM=C 3 H 4 Cl 2
##$NIST SOURCE=MSDC-IR
##SPECTROMETER/DATA SYSTEM=HP-GC/MS/IRD
##STATE=gas
##XUNITS=1/CM
##YUNITS=ABSORBANCE
##XFACTOR=1.0
##YFACTOR=0.000000900
##DELTAX=4.0
##FIRSTX=550.0
##LASTX=3846.0
##FIRSTY=0.000368
##MAXX=3846
##MINX=550
##MAXY=0.009
##MINY=0
##NPOINTS=825
##XYDATA=(X++(Y..Y))
550.0 409 360 74 3 0 93 188 145 8 153
590.0 267 199 123 81 275 508 687 994 1426 1907
630.0 2505 3064 3410 3589 3814 3945 3694 3466 3368 3406
670.0 3858 4521 5198 5853 6282 6580 6538 6042 5381 4541
710.0 3581 2724 2134 1801 1867 2224 2899 3872 5067 6394
750.0 7517 8405 8708 8292 7585 6284 4396 2641 1449 896
790.0 640 526 492 408 404 405 362 358 371 386
830.0 384 424 449 392 426 584 768 994 1354 1926
870.0 2724 3625 4598 5610 6475 8056 10000 9308 7679 6892
910.0 5970 4965 4017 3328 2788 2297 1907 1608 1366 1269
950.0 1178 961 691 502 435 406 356 333 326 328
990.0 307 269 258 242 226 280 317 204 143 190
1030.0 243 259 251 242 263 286 326 356 406 463
1070.0 466 514 631 800 962 1028 1149 1339 1572 1867
1110.0 2250 2883 3872 5032 5945 6409 6655 6737 6324 5117
1150.0 3642 2398 1578 1181 1030 954 917 978 1085 1176
1190.0 1354 1658 2061 2529 3019 3264 3198 3068 3045 2921
1230.0 2411 1889 1687 1686 1855 2157 2556 2962 3214 3293
1270.0 3293 3184 2886 2415 1971 1622 1319 1098 947 802
1310.0 687 599 572 548 527 537 545 555 592 653
1350.0 674 695 778 824 880 1020 1216 1357 1399 1481
1390.0 1559 1575 1584 1548 1472 1444 1487 1583 1723 1874
1430.0 1971 1891 1812 1795 1626 1396 1099 818 631 473
1470.0 382 310 251 244 208 157 166 189 204 210
1510.0 191 191 241 266 275 260 231 231 228 247
1550.0 267 282 338 384 374 396 485 575 627 694
1590.0 821 1023 1275 1583 2006 2563 3196 3894 4546 5040
1630.0 5316 5459 5619 5554 4974 4117 3411 2891 2283 1674
1670.0 1205 851 613 463 344 281 235 218 218 202
1710.0 201 170 117 119 153 147 126 145 147 149
1750.0 155 180 230 268 324 384 455 527 605 706
1790.0 740 726 743 740 667 554 447 371 320 257
1830.0 207 198 175 190 202 178 162 156 145 121
1870.0 121 134 134 114 117 139 140 123 108 125
1910.0 133 121 137 132 135 141 116 135 121 103
1950.0 134 141 97 74 81 89 117 124 81 75
1990.0 124 146 161 154 132 120 110 112 123 115
2030.0 99 95 122 141 118 152 183 155 143 155
2070.0 143 126 107 115 120 92 93 127 114 124
2110.0 169 139 121 131 142 111 76 106 122 125
2150.0 123 121 126 129 119 103 88 88 116 147
2190.0 149 140 125 119 120 139 126 95 101 128
2230.0 126 91 132 163 157 161 165 144 143 151
2270.0 140 150 142 142 153 106 84 99 111 139
2310.0 126 116 154 148 148 171 183 192 210 202
2350.0 201 212 184 169 132 103 124 137 121 103
2390.0 98 105 118 103 82 102 114 113 104 89
2430.0 107 131 139 125 102 103 102 86 97 136
2470.0 138 118 137 111 68 71 96 124 90 84
2510.0 124 130 129 106 78 79 101 124 114 87
2550.0 74 74 66 72 78 73 70 70 82 104
2590.0 85 90 122 122 99 84 74 75 102 97
2630.0 119 110 65 92 114 50 47 42 47 54
2670.0 6 11 37 110 162 113 109 108 76 119
2710.0 139 163 173 157 173 153 109 112 124 142
2750.0 132 93 96 142 127 88 114 114 131 161
2790.0 178 156 137 122 77 68 120 127 131 168
2830.0 162 195 225 279 323 333 337 323 356 320
2870.0 263 253 276 230 124 166 208 148 117 132
2910.0 175 198 208 250 266 290 409 507 610 803
2950.0 1081 1310 1414 1498 1701 1787 1508 1223 1058 887
2990.0 730 654 538 485 515 427 422 435 409 362
3030.0 290 290 289 251 241 272 260 192 172 156
3070.0 146 146 147 152 163 160 144 182 200 182
3110.0 240 310 349 336 290 293 227 136 124 124
3150.0 166 164 73 52 72 80 112 86 81 80
3190.0 69 120 112 82 79 67 79 82 103 138
3230.0 111 59 87 80 72 140 150 109 126 153
3270.0 145 125 140 174 175 142 129 112 93 121
3310.0 145 98 52 37 55 90 74 74 43 29
3350.0 69 123 159 147 91 54 51 55 104 185
3390.0 204 111 82 103 107 136 197 158 14 8
3430.0 107 175 124 126 154 93 76 142 145 90
3470.0 146 150 116 90 44 66 153 172 145 129
3510.0 131 130 158 179 119 92 116 146 125 57
3550.0 114 148 126 145 112 113 142 189 227 227
3590.0 212 163 98 87 130 131 154 146 168 163
3630.0 122 194 190 174 134 107 63 78 176 212
3670.0 256 189 120 176 240 196 118 99 157 219
3710.0 192 158 186 206 135 132 160 136 138 241
3750.0 248 181 211 184 155 159 179 208 162 141
3790.0 150 151 189 198 179 120 120 177 180 202
3830.0 163 138 197 152 122
##END=
