##TITLE=Chloroiodomethane
##JCAMP-DX=4.24
##DATA TYPE=INFRARED SPECTRUM
##ORIGIN=NIST Mass Spectrometry Data Center
##OWNER=NIST Standard Reference Data Program
Collection (C) 2009 copyright by the U.S. Secretary of Commerce
on behalf of the United States of America. All rights reserved.
##CAS REGISTRY NO=593-71-5
##MOLFORM=C H 2 Cl I
##$NIST SOURCE=MSDC-IR
##SPECTROMETER/DATA SYSTEM=HP-GC/MS/IRD
##STATE=gas
##XUNITS=1/CM
##YUNITS=ABSORBANCE
##XFACTOR=1.0
##YFACTOR=0.000005700
##DELTAX=4.0
##FIRSTX=550.0
##LASTX=3846.0
##FIRSTY=0.001448
##MAXX=3846
##MINX=550
##MAXY=0.057
##MINY=0
##NPOINTS=825
##XYDATA=(X++(Y..Y))
550.0 254 338 140 108 78 52 37 56 57 50
590.0 46 30 39 53 47 43 49 48 46 44
630.0 50 63 65 72 91 95 96 120 169 218
670.0 243 264 311 374 445 564 790 1157 1724 2557
710.0 3701 5146 6798 8462 9705 10000 9424 8660 8049 6266
750.0 3186 1142 546 416 362 331 317 324 346 405
790.0 397 336 324 311 272 249 230 210 185 150
830.0 139 127 106 91 88 75 55 46 42 43
870.0 42 35 24 13 16 17 11 12 26 31
910.0 21 17 24 23 13 15 15 9 3 11
950.0 18 9 0 1 6 17 25 16 17 25
990.0 26 19 19 16 15 19 23 33 37 34
1030.0 39 49 53 60 60 67 72 70 73 65
1070.0 58 57 38 26 22 29 39 37 41 43
1110.0 46 53 62 60 57 72 88 97 119 156
1150.0 230 377 695 1314 2431 4144 6186 7685 7753 7027
1190.0 7131 7017 4936 2414 981 453 288 218 184 141
1230.0 101 79 55 41 42 42 25 17 16 10
1270.0 17 21 16 11 11 12 15 17 15 14
1310.0 16 15 13 17 15 11 12 13 15 15
1350.0 17 22 32 42 48 53 49 49 50 46
1390.0 37 28 24 27 32 39 45 50 54 59
1430.0 66 76 87 98 104 110 110 103 97 86
1470.0 73 66 54 30 20 17 20 21 18 18
1510.0 20 24 21 14 13 16 20 19 14 10
1550.0 13 15 16 19 23 28 32 27 28 28
1590.0 22 18 17 15 13 14 13 13 15 14
1630.0 9 8 13 13 9 8 11 11 10 11
1670.0 7 3 6 7 3 4 6 7 10 12
1710.0 7 6 9 9 5 1 0 2 3 4
1750.0 8 9 10 8 8 8 8 10 8 7
1790.0 4 8 8 9 13 17 16 17 15 13
1830.0 10 5 4 7 7 8 8 10 12 10
1870.0 7 10 12 17 25 30 34 34 32 36
1910.0 35 30 26 24 22 19 16 20 25 28
1950.0 27 26 24 23 26 28 27 30 29 22
1990.0 19 21 21 18 16 15 16 13 9 8
2030.0 6 8 11 9 9 8 5 3 6 8
2070.0 8 9 7 8 13 10 11 16 15 14
2110.0 14 18 20 22 25 29 32 33 37 45
2150.0 48 52 56 59 63 64 66 69 73 75
2190.0 66 55 53 52 50 49 46 44 39 33
2230.0 32 31 25 22 21 20 19 20 19 16
2270.0 19 22 23 25 23 24 25 24 25 24
2310.0 29 32 34 37 34 34 40 44 47 54
2350.0 59 68 72 66 62 59 58 47 33 26
2390.0 22 19 18 18 19 17 14 13 9 3
2430.0 7 10 8 3 6 6 3 7 11 9
2470.0 6 6 7 6 7 6 6 12 17 12
2510.0 12 13 11 11 10 12 18 19 15 12
2550.0 12 16 19 19 24 33 41 46 54 62
2590.0 57 53 56 50 33 17 12 13 12 10
2630.0 9 16 13 8 12 16 12 7 3 2
2670.0 6 9 11 8 5 7 8 11 12 4
2710.0 0 10 11 9 5 5 9 15 20 15
2750.0 13 16 23 19 12 17 19 11 14 16
2790.0 15 18 17 15 10 10 16 13 13 16
2830.0 14 15 14 6 4 14 15 7 7 7
2870.0 5 9 11 12 15 16 11 7 7 17
2910.0 25 26 22 24 23 22 28 36 39 49
2950.0 64 70 76 84 92 106 123 137 152 185
2990.0 213 214 190 168 198 225 205 186 169 152
3030.0 133 120 119 106 85 76 74 70 70 78
3070.0 67 58 52 45 50 47 42 48 41 27
3110.0 22 19 19 13 10 17 18 21 16 12
3150.0 10 10 17 16 13 9 9 14 16 4
3190.0 2 10 15 19 15 16 22 25 23 23
3230.0 23 18 17 12 12 21 26 20 11 9
3270.0 1 6 18 22 21 16 19 18 16 10
3310.0 7 14 16 22 23 20 18 19 21 23
3350.0 21 19 27 21 19 29 32 29 31 38
3390.0 31 26 25 24 23 17 31 37 28 28
3430.0 25 26 28 21 23 27 26 33 27 19
3470.0 22 19 23 31 27 26 30 32 31 31
3510.0 31 29 27 29 34 35 27 20 19 27
3550.0 31 22 21 26 30 31 23 19 21 19
3590.0 30 37 32 21 16 22 28 33 36 31
3630.0 25 19 10 21 27 35 49 39 26 23
3670.0 26 29 29 32 34 38 45 45 42 46
3710.0 44 42 40 40 37 41 52 42 29 29
3750.0 37 44 39 43 46 30 24 32 38 39
3790.0 36 30 23 28 34 38 52 49 39 40
3830.0 42 41 41 50 49
##END=
