##TITLE=Methylthioacetonitrile
##JCAMP-DX=4.24
##DATA TYPE=INFRARED SPECTRUM
##ORIGIN=EPA-IR VAPOR PHASE LIBRARY
##OWNER=SRD/NIST
Collection (C) 2009 copyright by the U.S. Secretary of Commerce
on behalf of the United States of America. All rights reserved.
##CAS REGISTRY NO=35120-10-6
##MOLFORM=C 3 H 5 N S
##$NIST SOURCE=MSDC-IR
##STATE=gas
##XUNITS=1/CM
##YUNITS=ABSORBANCE
##XFACTOR=1.
##YFACTOR=0.001
##DELTAX=1.92934
##FIRSTX=549.9
##LASTX=3999.5
##FIRSTY=0.772
##MAXX=3999.53
##MINX=549.863
##MAXY=0.010441
##MINY=0
##NPOINTS=1789
##XYDATA=(X++(Y..Y))
549.863 0.772 0.6352 0.5016 0.6051 0.5573 0.5916 0.6316 0.616 0.7343 0.709
569.156 0.5983 0.5403 0.597 0.638 0.5885 0.5529 0.5727 0.4557 0.4947 0.6417
588.450 0.5551 0.4802 0.4367 0.4335 0.4989 0.5739 0.4836 0.3424 0.401 0.4772
607.743 0.4861 0.471 0.4911 0.4696 0.4447 0.5004 0.5351 0.5777 0.5667 0.5354
627.037 0.5268 0.4978 0.5447 0.6376 0.6573 0.6611 0.6852 0.6802 0.7047 0.6943
646.330 0.6562 0.716 0.8449 0.8621 0.8527 0.8977 0.9293 0.9154 0.9572 1.0374
665.624 1.1062 1.211 1.241 1.301 1.371 1.391 1.531 1.711 1.871 2.021
684.917 2.161 2.251 2.231 2.251 2.301 2.241 2.161 2.081 2.031 2.051
704.210 2.011 1.931 1.811 1.691 1.571 1.521 1.521 1.461 1.401 1.321
723.504 1.281 1.301 1.261 1.221 1.261 1.281 1.231 1.1891 1.201 1.1701
742.797 1.0874 1.0708 1.0314 0.9876 0.9592 0.929 0.8615 0.7615 0.7085 0.647
762.091 0.5932 0.5364 0.4777 0.4732 0.422 0.4039 0.4359 0.4113 0.4059 0.3336
781.384 0.28762 0.34 0.3395 0.3714 0.3883 0.3746 0.3768 0.3136 0.27171 0.3151
800.678 0.3697 0.3892 0.3819 0.4021 0.4282 0.4314 0.3789 0.3816 0.4358 0.4571
819.971 0.5029 0.5362 0.5648 0.5775 0.566 0.5606 0.5915 0.6218 0.6348 0.65
839.264 0.6541 0.6373 0.622 0.6837 0.7412 0.7271 0.6911 0.6766 0.6715 0.6369
858.558 0.5774 0.563 0.6028 0.6118 0.5937 0.5418 0.5203 0.5765 0.5772 0.5371
877.851 0.5716 0.6156 0.6466 0.6947 0.7206 0.7667 0.8371 0.8979 0.942 1.039
897.145 1.181 1.291 1.461 1.671 1.831 1.931 2.051 2.251 2.441 2.571
916.438 2.641 2.691 2.671 2.711 2.781 2.751 2.701 2.661 2.611 2.551
935.732 2.471 2.371 2.201 2.041 1.931 1.851 1.841 1.861 1.871 1.871
955.025 1.991 2.101 2.181 2.371 2.571 2.821 2.941 2.991 3.181 3.401
974.318 3.591 3.731 3.871 3.881 3.811 3.781 3.711 3.671 3.681 3.601
993.612 3.321 3.041 2.991 2.911 2.701 2.441 2.141 1.911 1.741 1.541
1012.905 1.341 1.211 1.1112 1.0209 0.958 0.8913 0.827 0.8016 0.7683 0.7002
1032.199 0.6558 0.6477 0.6445 0.6082 0.5769 0.5846 0.5867 0.5711 0.5422 0.5462
1051.492 0.6055 0.575 0.5235 0.5261 0.5077 0.4961 0.512 0.5279 0.5241 0.529
1070.786 0.5026 0.4295 0.4457 0.4836 0.4176 0.3943 0.3861 0.3433 0.3517 0.4215
1090.079 0.4584 0.4068 0.4174 0.4173 0.3912 0.3995 0.4146 0.3778 0.29062 0.29646
1109.372 0.3545 0.3509 0.343 0.4107 0.4388 0.4253 0.3998 0.3233 0.2939 0.3297
1128.666 0.3261 0.3436 0.3729 0.4227 0.4833 0.4365 0.3776 0.4201 0.4497 0.4322
1147.959 0.461 0.5353 0.6054 0.6044 0.5925 0.6141 0.7501 0.7919 0.7996 0.9437
1167.253 1.002 1.1073 1.281 1.311 1.351 1.411 1.441 1.561 1.751 1.831
1186.546 1.711 1.601 1.531 1.621 1.671 1.611 1.651 1.601 1.451 1.411
1205.840 1.421 1.491 1.601 1.701 1.951 2.141 2.321 2.691 3.071 3.491
1225.133 3.761 3.831 3.911 3.941 3.851 3.771 3.771 3.691 3.451 3.331
1244.426 3.351 3.411 3.441 3.191 2.761 2.331 1.941 1.601 1.251 1.0352
1263.720 0.9632 0.8862 0.8436 0.7889 0.7509 0.7155 0.7119 0.7243 0.7273 0.7581
1283.013 0.7365 0.7028 0.6768 0.6689 0.6768 0.7462 0.8185 0.796 0.7957 0.8181
1302.307 0.8287 0.8857 0.9556 0.9809 0.9901 1.0589 1.221 1.291 1.251 1.261
1321.600 1.271 1.291 1.291 1.281 1.251 1.1968 1.201 1.251 1.261 1.231
1340.894 1.1832 1.1283 1.045 0.9585 0.8781 0.7868 0.768 0.7577 0.756 0.7372
1360.187 0.7106 0.7328 0.7582 0.8171 0.8443 0.8701 0.9482 1.0033 1.0696 1.201
1379.480 1.371 1.531 1.661 1.861 2.071 2.301 2.571 2.851 3.181 3.541
1398.774 3.891 4.261 4.621 5.001 5.361 5.731 6.091 6.441 6.821 7.211
1418.067 7.411 7.531 7.731 7.931 8.121 8.281 8.411 8.711 8.921 8.621
1437.361 8.111 7.711 7.381 7.151 6.851 6.411 6.101 5.871 5.601 5.291
1456.654 4.881 4.451 4.011 3.551 3.081 2.721 2.461 2.181 1.941 1.741
1475.948 1.561 1.391 1.271 1.1499 1.0333 1.0102 1.0047 0.9206 0.8715 0.8357
1495.241 0.7775 0.7392 0.7224 0.7351 0.7291 0.7464 0.7395 0.7252 0.6932 0.6748
1514.534 0.7068 0.7101 0.7303 0.6995 0.6892 0.7383 0.7687 0.7367 0.6862 0.6988
1533.828 0.7049 0.6975 0.6948 0.6907 0.6549 0.6454 0.6557 0.6717 0.6838 0.66
1553.121 0.6557 0.6962 0.6704 0.5709 0.5742 0.6704 0.696 0.6665 0.6873 0.6857
1572.415 0.6761 0.6478 0.6329 0.6521 0.6896 0.7087 0.6856 0.6741 0.688 0.6895
1591.708 0.6347 0.5924 0.5652 0.5943 0.5983 0.55 0.5314 0.5615 0.586 0.531
1611.002 0.5134 0.4805 0.4413 0.4315 0.4355 0.4256 0.4029 0.4033 0.3718 0.3414
1630.295 0.3276 0.29415 0.27594 0.27861 0.3227 0.3451 0.26614 0.23703 0.26886 0.25185
1649.588 0.21177 0.21563 0.22753 0.24548 0.27095 0.28345 0.27728 0.27847 0.2841 0.29103
1668.882 0.29226 0.26867 0.26259 0.26756 0.2859 0.27407 0.2627 0.24852 0.23515 0.252
1688.175 0.28726 0.30042 0.2452 0.21169 0.21526 0.27264 0.28787 0.26456 0.27015 0.25729
1707.469 0.26668 0.26667 0.25142 0.24688 0.26812 0.24927 0.206484 0.23647 0.209354 0.1969
1726.762 0.22728 0.1882 0.1444 0.1361 0.206298 0.24912 0.22225 0.21851 0.208327 0.200681
1746.056 0.1909 0.1929 0.21291 0.19913 0.19261 0.1773 0.154 0.1681 0.175 0.189
1765.349 0.1867 0.1719 0.19325 0.1902 0.19777 0.19971 0.1853 0.1699 0.1425 0.1505
1784.642 0.1457 0.1258 0.1508 0.1527 0.1134 0.1193 0.1359 0.1249 0.1202 0.1398
1803.936 0.1343 0.1148 0.1474 0.1644 0.1467 0.1127 0.1343 0.1815 0.1505 0.1352
1823.229 0.1712 0.1877 0.1523 0.1137 0.1294 0.1415 0.1342 0.1538 0.1424 0.1516
1842.523 0.1589 0.1374 0.1403 0.1513 0.1399 0.1237 0.1143 0.098 0.1093 0.1174
1861.816 0.1057 0.094 0.1154 0.1272 0.1253 0.1291 0.1352 0.149 0.1328 0.1137
1881.110 0.1306 0.15 0.1688 0.1357 0.092 0.1073 0.1454 0.1591 0.1526 0.1495
1900.403 0.142 0.1188 0.098 0.1248 0.1419 0.1159 0.101 0.082 0.079 0.1232
1919.696 0.1302 0.1257 0.1178 0.1054 0.1218 0.1254 0.1117 0.1353 0.209547 0.208901
1938.990 0.1083 0.078 0.1036 0.093 0.1 0.1198 0.1164 0.1059 0.1421 0.1525
1958.283 0.1305 0.119 0.1117 0.1362 0.134 0.1265 0.1332 0.1431 0.1418 0.1712
1977.577 0.19192 0.1598 0.1656 0.1875 0.1768 0.1836 0.209953 0.1835 0.1788 0.207634
1996.870 0.201032 0.20564 0.1774 0.189 0.24649 0.27192 0.26768 0.26386 0.30094 0.29007
2016.164 0.29429 0.3102 0.29505 0.3047 0.3367 0.3453 0.3027 0.28644 0.3027 0.3255
2035.457 0.3322 0.3296 0.3213 0.26461 0.24691 0.24352 0.21486 0.22851 0.22453 0.1882
2054.750 0.1777 0.203741 0.21713 0.1976 0.21374 0.22071 0.19213 0.21631 0.24989 0.22667
2074.044 0.24673 0.25895 0.21999 0.19484 0.201844 0.23271 0.21819 0.1745 0.1408 0.104
2093.337 0.1087 0.1344 0.1439 0.1484 0.1553 0.155 0.1071 0.1092 0.1413 0.1185
2112.631 0.1131 0.093 0.083 0.097 0.072 0.08 0.094 0.1153 0.1662 0.169
2131.924 0.1393 0.1025 0.074 0.063 0.057 0.073 0.061 0.059 0.119 0.1459
2151.218 0.1134 0.1017 0.1073 0.1402 0.1762 0.1376 0.098 0.098 0.1158 0.1491
2170.511 0.1483 0.1344 0.1234 0.139 0.1499 0.1034 0.096 0.1433 0.146 0.151
2189.804 0.1385 0.1135 0.1302 0.099 0.086 0.101 0.1238 0.1396 0.1331 0.1509
2209.098 0.1421 0.1449 0.1678 0.19725 0.19317 0.19419 0.24858 0.29289 0.3179 0.3315
2228.391 0.375 0.4297 0.4907 0.5734 0.6501 0.6997 0.7282 0.7875 0.8176 0.8408
2247.685 0.8579 0.8391 0.8597 0.8487 0.8266 0.8019 0.7718 0.7849 0.7348 0.6149
2266.978 0.5219 0.4454 0.395 0.3579 0.316 0.3098 0.3133 0.3186 0.3133 0.27258
2286.272 0.27029 0.26497 0.2558 0.26499 0.2573 0.26842 0.25194 0.24957 0.25419 0.24045
2305.565 0.24399 0.26431 0.25645 0.24165 0.28658 0.2671 0.210652 0.1839 0.1725 0.1556
2324.858 0.143 0.187 0.201174 0.1872 0.1841 0.1865 0.1794 0.19477 0.22437 0.209537
2344.152 0.1783 0.1784 0.174 0.1758 0.1875 0.210266 0.20217 0.1809 0.158 0.1151
2363.445 0.1296 0.1346 0.1235 0.1472 0.1827 0.1649 0.1608 0.21462 0.21252 0.19274
2382.739 0.1803 0.1687 0.1923 0.21151 0.21829 0.23236 0.24125 0.26198 0.30045 0.3053
2402.032 0.29525 0.29913 0.3205 0.28299 0.25712 0.29813 0.3189 0.3306 0.3316 0.3093
2421.326 0.29115 0.29155 0.27391 0.25664 0.3012 0.3371 0.27939 0.2291 0.24272 0.24024
2440.619 0.23298 0.26421 0.28618 0.26706 0.25426 0.26922 0.3223 0.3514 0.3376 0.3508
2459.912 0.3525 0.29201 0.25495 0.23928 0.2552 0.26311 0.24213 0.209458 0.1631 0.1588
2479.206 0.1665 0.1747 0.1585 0.1165 0.1073 0.085 0.053 0.067 0.063 0.058
2498.499 0.063 0.075 0.069 0.017 0.012 0.025 0.031 0.037 0.005 0.021
2517.793 0.005 0.01 0.057 0.069 0.087 0.066 0.048 0.067 0.098 0.1051
2537.086 0.059 0.042 0.076 0.083 0.069 0.063 0.045 0.046 0.061 0.088
2556.380 0.1048 0.082 0.083 0.062 0.053 0.053 0.063 0.08 0.089 0.091
2575.673 0.084 0.093 0.09 0.101 0.09 0.1196 0.1422 0.1183 0.1662 0.19432
2594.966 0.1523 0.1245 0.1308 0.1224 0.1107 0.1018 0.092 0.058 0.039 0.067
2614.260 0.1159 0.1373 0.1374 0.11 0.056 0.056 0.071 0.097 0.1044 0.076
2633.553 0.093 0.095 0.077 0.1039 0.1412 0.1542 0.131 0.1223 0.1081 0.1169
2652.847 0.1744 0.22419 0.22121 0.1427 0.1 0.089 0.083 0.1309 0.1535 0.086
2672.140 0.074 0.072 0.008 0.021 0.085 0.096 0.059 0.026 0.011 0.06
2691.434 0.1029 0.095 0.042 0.018 0.039 0.001 0 0.038 0.036 0.039
2710.727 0.028 0.01 0.012 0.009 0.033 0.056 0.086 0.1085 0.072 0.054
2730.020 0.031 0.028 0.085 0.102 0.1273 0.1398 0.097 0.085 0.1369 0.1491
2749.314 0.1878 0.166 0.1393 0.1665 0.1515 0.1635 0.1657 0.1555 0.1329 0.1379
2768.607 0.1249 0.1176 0.1211 0.171 0.1859 0.19249 0.22531 0.1715 0.1357 0.1193
2787.901 0.172 0.21863 0.1618 0.21406 0.27571 0.28436 0.3699 0.4587 0.5449 0.5573
2807.194 0.4865 0.4499 0.4996 0.6001 0.7012 0.7037 0.7589 0.8968 0.9339 1.0552
2826.488 1.1892 1.241 1.331 1.481 1.671 1.811 1.881 1.901 1.971 2.021
2845.781 2.031 2.061 2.031 2.041 2.101 2.121 2.131 2.171 2.161 1.951
2865.074 1.871 1.931 1.811 1.591 1.491 1.481 1.471 1.401 1.321 1.421
2884.368 1.521 1.531 1.501 1.491 1.591 1.691 1.901 2.161 2.461 2.761
2903.661 3.021 3.401 3.741 4.241 4.881 5.461 6.091 6.871 7.641 8.421
2922.955 9.171 9.601 9.841 10.031 10.321 10.441 10.131 9.971 10.051 10.021
2942.248 9.791 9.481 9.071 8.461 7.771 7.061 6.281 5.571 5.041 4.481
2961.542 3.961 3.631 3.341 3.191 3.201 3.101 3.041 3.111 3.181 3.251
2980.835 3.351 3.501 3.631 3.711 3.871 4.321 4.491 4.281 4.091 3.931
3000.128 3.771 3.641 3.551 3.381 3.201 2.991 2.881 2.771 2.521 2.251
3019.422 2.051 1.821 1.561 1.381 1.241 1.1243 1.0228 0.8526 0.7574 0.8241
3038.715 0.7426 0.5806 0.4677 0.5314 0.5864 0.467 0.4677 0.5201 0.5049 0.4612
3058.009 0.4488 0.4556 0.4613 0.4594 0.4264 0.4404 0.5204 0.5946 0.5839 0.476
3077.302 0.4338 0.5702 0.6692 0.6609 0.6301 0.5717 0.4838 0.4787 0.5415 0.5656
3096.596 0.6131 0.6329 0.5972 0.5281 0.5428 0.6337 0.5895 0.5997 0.6654 0.6283
3115.889 0.6597 0.7078 0.6708 0.516 0.4564 0.544 0.6078 0.6342 0.6393 0.6435
3135.182 0.6875 0.721 0.7646 0.8593 0.9002 0.8634 0.8108 0.7287 0.6379 0.6872
3154.476 0.814 0.8463 0.8631 0.9317 0.9609 0.9458 0.8672 0.787 0.7255 0.7389
3173.769 0.7703 0.7198 0.5907 0.5852 0.6214 0.5043 0.4951 0.5922 0.5403 0.4744
3193.063 0.4727 0.4266 0.4756 0.5093 0.4856 0.5109 0.4342 0.3937 0.5302 0.4414
3212.356 0.3552 0.4079 0.3576 0.3654 0.3708 0.345 0.3826 0.5117 0.5405 0.5081
3231.650 0.5057 0.4498 0.3801 0.3981 0.4668 0.4577 0.4376 0.468 0.516 0.429
3250.943 0.3119 0.3436 0.4262 0.5272 0.418 0.336 0.476 0.6551 0.5874 0.4328
3270.236 0.4707 0.4843 0.3884 0.36 0.5482 0.5887 0.5431 0.6055 0.6504 0.622
3289.530 0.5796 0.4325 0.4092 0.4807 0.4685 0.4175 0.3571 0.3877 0.3257 0.26475
3308.823 0.3113 0.4015 0.4077 0.3495 0.3175 0.3397 0.3165 0.3626 0.4483 0.4301
3328.117 0.504 0.4296 0.23922 0.25974 0.3029 0.3295 0.4559 0.4682 0.4242 0.446
3347.410 0.4277 0.4458 0.4688 0.3694 0.3324 0.355 0.4009 0.4219 0.464 0.5161
3366.704 0.4832 0.4326 0.4382 0.4862 0.4462 0.418 0.3811 0.3978 0.4329 0.3884
3385.997 0.3104 0.3076 0.29366 0.29635 0.4283 0.4582 0.4256 0.4409 0.3623 0.206448
3405.290 0.3255 0.37 0.27282 0.3692 0.4554 0.4623 0.4108 0.354 0.29348 0.3526
3424.584 0.4609 0.3969 0.4623 0.5181 0.4157 0.3508 0.29941 0.27249 0.3593 0.414
3443.877 0.4044 0.3944 0.3203 0.3716 0.3806 0.2946 0.3049 0.3909 0.3969 0.3865
3463.171 0.4156 0.3314 0.3323 0.4185 0.4218 0.3534 0.3662 0.497 0.463 0.3943
3482.464 0.4785 0.6029 0.5458 0.3125 0.26351 0.4672 0.4317 0.3142 0.4006 0.3652
3501.758 0.3141 0.3733 0.3781 0.28649 0.4367 0.5222 0.3775 0.4119 0.356 0.3185
3521.051 0.4713 0.4616 0.3612 0.3167 0.3289 0.3587 0.3196 0.3465 0.4418 0.4128
3540.344 0.3893 0.3601 0.3982 0.4759 0.5384 0.5576 0.5119 0.5407 0.4966 0.4549
3559.638 0.4414 0.4211 0.4032 0.4491 0.4158 0.3072 0.26007 0.3535 0.3632 0.26543
3578.931 0.30079 0.4192 0.4618 0.4523 0.4268 0.3954 0.3623 0.3733 0.4658 0.4551
3598.225 0.449 0.4484 0.3986 0.4209 0.3974 0.3754 0.3988 0.4799 0.5035 0.4042
3617.518 0.28889 0.26041 0.4124 0.535 0.514 0.5109 0.5159 0.4608 0.3944 0.28617
3636.812 0.26316 0.3688 0.4661 0.4687 0.3472 0.19431 0.30072 0.4043 0.3906 0.4319
3656.105 0.331 0.21566 0.3564 0.5 0.411 0.3013 0.27002 0.2923 0.3434 0.3536
3675.398 0.4404 0.5056 0.426 0.4008 0.4361 0.4221 0.4021 0.4004 0.3644 0.447
3694.692 0.4663 0.3588 0.2687 0.25252 0.26484 0.22463 0.27394 0.3335 0.27075 0.22037
3713.985 0.2726 0.3198 0.371 0.3841 0.3307 0.24915 0.3481 0.3826 0.3341 0.3131
3733.279 0.29325 0.3351 0.26585 0.2465 0.25641 0.28104 0.3287 0.2527 0.29519 0.4142
3752.572 0.4324 0.4154 0.4504 0.3864 0.324 0.3563 0.3205 0.3447 0.3415 0.355
3771.866 0.3528 0.29356 0.3693 0.4115 0.3672 0.29682 0.3193 0.4196 0.4186 0.3648
3791.159 0.29909 0.3328 0.3419 0.28209 0.3073 0.3718 0.3615 0.3468 0.3644 0.4222
3810.452 0.4986 0.4961 0.3724 0.3184 0.3264 0.3398 0.3374 0.23418 0.1886 0.1695
3829.746 0.1611 0.1814 0.23472 0.3457 0.3277 0.1812 0.1261 0.1821 0.27143 0.30098
3849.039 0.2338 0.1415 0.1522 0.207776 0.3233 0.3784 0.27099 0.1909 0.202656 0.26804
3868.333 0.3415 0.3625 0.3032 0.3378 0.3919 0.346 0.3267 0.341 0.25825 0.25126
3887.626 0.3632 0.3449 0.3258 0.3255 0.3306 0.385 0.3711 0.29061 0.25881 0.3532
3906.920 0.488 0.5017 0.368 0.3327 0.3874 0.3571 0.3552 0.3243 0.307 0.3732
3926.213 0.393 0.3308 0.3077 0.3468 0.3392 0.322 0.3441 0.3338 0.3795 0.3914
3945.506 0.22857 0.201789 0.3206 0.3178 0.3304 0.3026 0.22729 0.3128 0.3574 0.3114
3964.800 0.389 0.4246 0.4942 0.5135 0.4999 0.4813 0.3569 0.3555 0.3187 0.29623
3984.093 0.29614 0.1566 0.1034 0.19563 0.28528 0.3593 0.3266 0.22534 0.1712
##END=
