##TITLE=Ethylcyclobutane
##JCAMP-DX=4.24
##DATA TYPE=INFRARED SPECTRUM
##ORIGIN=NIST Mass Spectrometry Data Center
##OWNER=NIST Standard Reference Data Program
Collection (C) 2009 copyright by the U.S. Secretary of Commerce
on behalf of the United States of America. All rights reserved.
##CAS REGISTRY NO=4806-61-5
##MOLFORM=C 6 H 12
##$NIST SOURCE=MSDC-IR
##SPECTROMETER/DATA SYSTEM=HP-GC/MS/IRD
##STATE=gas
##XUNITS=1/CM
##YUNITS=ABSORBANCE
##XFACTOR=1.0
##YFACTOR=0.000006000
##DELTAX=4.0
##FIRSTX=550.0
##LASTX=3846.0
##FIRSTY=0.000246
##MAXX=3846
##MINX=550
##MAXY=0.06
##MINY=0
##NPOINTS=825
##XYDATA=(X++(Y..Y))
550.0 41 27 5 9 14 8 0 18 32 22
590.0 25 39 50 69 56 45 49 40 36 46
630.0 35 21 34 47 49 37 27 26 33 45
670.0 45 32 31 37 30 28 32 34 30 32
710.0 41 39 32 41 45 45 42 38 43 45
750.0 45 53 58 56 63 65 65 75 79 81
790.0 79 61 54 60 54 51 40 27 22 22
830.0 26 23 24 31 31 33 41 36 34 42
870.0 54 61 65 66 69 78 90 108 120 137
910.0 151 165 176 165 157 143 114 89 79 73
950.0 71 65 71 91 108 122 136 144 142 136
990.0 123 107 89 71 53 38 33 30 19 17
1030.0 22 27 22 14 18 17 14 19 24 19
1070.0 16 23 34 33 32 36 34 35 39 42
1110.0 43 43 41 49 53 45 44 41 37 45
1150.0 45 33 37 43 46 47 45 46 47 55
1190.0 55 54 57 58 56 61 72 81 92 109
1230.0 129 143 159 167 162 160 157 155 152 150
1270.0 149 148 139 136 151 172 203 244 269 273
1310.0 277 270 259 240 196 146 119 113 112 123
1350.0 140 155 171 192 219 249 268 278 284 291
1390.0 295 278 242 200 167 154 161 177 203 247
1430.0 293 345 403 454 525 598 636 651 649 627
1470.0 588 526 458 390 322 260 208 170 143 117
1510.0 95 82 74 69 58 48 49 51 47 43
1550.0 40 41 41 38 36 34 28 30 33 27
1590.0 25 23 22 23 25 26 24 28 28 25
1630.0 25 31 28 26 33 37 36 30 33 32
1670.0 26 24 26 28 25 19 23 25 21 19
1710.0 19 20 19 13 7 13 15 10 12 12
1750.0 6 7 9 11 12 10 13 13 12 14
1790.0 13 17 16 16 17 17 16 13 12 14
1830.0 15 14 15 20 19 17 20 18 18 20
1870.0 16 10 10 12 10 11 7 3 6 10
1910.0 9 7 6 8 6 5 7 7 9 11
1950.0 10 6 9 11 7 9 8 3 7 8
1990.0 10 10 7 6 10 11 12 14 11 9
2030.0 11 10 13 18 18 18 19 21 20 14
2070.0 15 22 21 19 18 19 22 19 21 24
2110.0 26 28 28 31 39 44 45 49 55 56
2150.0 54 54 48 41 40 39 35 33 32 33
2190.0 32 30 30 27 25 23 25 26 26 27
2230.0 24 21 20 18 13 12 14 13 11 9
2270.0 5 6 9 7 7 5 1 5 11 12
2310.0 13 11 12 16 18 17 17 18 19 18
2350.0 19 27 27 26 26 25 22 20 20 19
2390.0 15 14 11 10 11 13 12 10 12 15
2430.0 17 16 17 19 20 21 19 17 10 10
2470.0 14 18 19 16 14 13 11 7 9 10
2510.0 10 14 15 17 19 17 13 19 22 21
2550.0 20 23 22 25 30 29 26 23 31 38
2590.0 37 37 41 45 52 56 57 54 53 58
2630.0 57 56 55 60 63 67 70 69 69 71
2670.0 73 75 70 63 68 71 69 68 76 82
2710.0 81 80 84 91 94 99 108 117 123 129
2750.0 130 129 131 130 137 142 140 148 165 175
2790.0 184 193 209 233 260 287 321 367 432 513
2830.0 617 751 921 1132 1384 1683 2013 2349 2678 2976
2870.0 3248 3501 3664 3722 3802 3891 3988 4114 4298 4571
2910.0 4948 5367 5744 6101 6447 6739 6972 7232 7631 8162
2950.0 8793 9395 9800 9974 10000 9801 9771 9592 7898 6152
2990.0 5059 4041 3194 2446 1837 1365 1034 799 653 559
3030.0 496 453 432 413 397 381 364 352 338 326
3070.0 315 301 288 271 252 238 221 203 183 173
3110.0 162 145 133 127 130 129 121 121 118 110
3150.0 104 103 109 110 102 95 90 79 66 65
3190.0 67 63 60 58 56 52 43 42 40 33
3230.0 32 32 29 29 34 31 25 26 29 30
3270.0 30 25 25 33 40 38 33 32 30 30
3310.0 28 30 38 39 35 35 38 39 41 41
3350.0 39 37 34 34 35 34 30 27 28 24
3390.0 20 18 14 19 17 9 13 15 7 1
3430.0 5 7 11 14 14 15 15 14 14 18
3470.0 15 15 18 19 18 16 16 23 26 23
3510.0 20 13 18 21 19 23 17 19 20 21
3550.0 24 28 33 29 26 20 17 25 26 28
3590.0 30 30 32 27 27 27 24 27 30 35
3630.0 38 37 35 33 39 34 32 33 31 38
3670.0 40 40 41 38 40 42 41 46 51 50
3710.0 43 44 50 50 44 45 51 49 40 45
3750.0 44 35 33 35 42 43 40 41 40 44
3790.0 50 49 50 52 46 49 53 53 61 63
3830.0 51 44 44 51 58
##END=
