##TITLE=2-Butyne
##JCAMP-DX=4.24
##DATA TYPE=INFRARED SPECTRUM
##ORIGIN=NIST Mass Spectrometry Data Center
##OWNER=NIST Standard Reference Data Program
Collection (C) 2009 copyright by the U.S. Secretary of Commerce
on behalf of the United States of America. All rights reserved.
##CAS REGISTRY NO=503-17-3
##MOLFORM=C 4 H 6
##$NIST SOURCE=MSDC-IR
##SPECTROMETER/DATA SYSTEM=HP-GC/MS/IRD
##STATE=gas
##XUNITS=1/CM
##YUNITS=ABSORBANCE
##XFACTOR=1.0
##YFACTOR=0.000003000
##DELTAX=4.0
##FIRSTX=550.0
##LASTX=3846.0
##FIRSTY=0.001659
##MAXX=3846
##MINX=550
##MAXY=0.03
##MINY=0
##NPOINTS=825
##XYDATA=(X++(Y..Y))
550.0 553 692 694 625 593 687 778 729 633 538
590.0 418 352 302 239 185 128 134 120 67 50
630.0 42 15 0 14 48 91 115 83 39 42
670.0 66 70 45 72 51 29 71 76 32 21
710.0 41 23 17 15 11 30 38 34 10 15
750.0 32 33 44 60 67 66 68 63 43 49
790.0 53 44 54 72 90 89 80 54 57 78
830.0 52 55 88 92 76 79 94 103 105 121
870.0 130 133 144 137 121 97 80 71 76 72
910.0 53 50 35 23 27 13 18 34 54 64
950.0 67 61 60 72 77 72 72 72 76 100
990.0 96 75 72 82 88 101 122 128 139 149
1030.0 141 149 171 150 129 138 139 139 135 126
1070.0 114 111 99 82 85 97 97 79 65 49
1110.0 45 53 39 53 69 58 57 76 84 57
1150.0 63 96 123 128 106 118 130 124 136 153
1190.0 139 146 187 215 218 222 221 217 212 208
1230.0 212 224 234 230 230 246 239 226 237 235
1270.0 224 252 301 287 253 324 383 317 283 354
1310.0 385 363 442 543 519 571 789 805 661 755
1350.0 943 964 1059 1367 1510 1449 1564 1610 1396 1345
1390.0 1442 1500 1381 1218 1348 1456 1299 1487 1913 1710
1430.0 1375 1506 1560 1339 1329 1536 1549 1470 1630 1702
1470.0 1538 1427 1405 1397 1372 1367 1444 1467 1275 1192
1510.0 1245 1134 1054 1099 1039 971 1068 1102 924 833
1550.0 803 692 629 632 584 559 553 500 462 445
1590.0 431 416 387 350 350 318 284 293 270 232
1630.0 222 203 175 156 139 131 129 133 123 94
1670.0 88 96 91 84 76 77 74 67 60 55
1710.0 52 55 54 39 33 34 32 33 38 35
1750.0 36 33 33 33 30 37 31 29 37 31
1790.0 34 47 33 28 42 42 43 43 53 58
1830.0 49 46 41 37 33 32 36 27 18 14
1870.0 11 12 13 13 15 23 16 23 35 27
1910.0 27 28 31 32 25 22 27 31 23 17
1950.0 20 24 25 31 24 15 15 13 12 7
1990.0 9 16 14 21 21 18 30 41 58 73
2030.0 87 108 139 172 192 207 203 199 195 197
2070.0 189 156 112 75 57 46 43 34 32 27
2110.0 21 28 31 24 30 24 13 23 30 31
2150.0 24 20 21 17 26 28 22 25 23 21
2190.0 23 19 13 18 26 20 14 19 13 6
2230.0 13 10 6 8 8 3 1 9 18 13
2270.0 12 22 21 16 15 13 12 15 15 22
2310.0 31 29 28 32 42 43 47 43 47 52
2350.0 40 55 78 73 67 79 92 104 111 106
2390.0 111 127 132 135 138 145 153 154 161 175
2430.0 169 160 159 147 139 142 147 151 158 164
2470.0 170 183 192 187 185 181 175 182 181 192
2510.0 204 195 189 176 172 168 162 164 162 159
2550.0 149 127 118 119 103 82 88 101 102 100
2590.0 94 87 87 90 79 74 79 76 73 74
2630.0 77 73 77 83 75 71 84 93 95 99
2670.0 102 109 111 125 139 141 146 152 157 161
2710.0 173 206 259 318 379 443 510 576 624 632
2750.0 643 685 724 693 575 459 392 348 321 306
2790.0 307 326 339 352 382 409 443 486 533 628
2830.0 741 861 1048 1285 1575 1985 2488 3026 3472 3741
2870.0 3878 3998 4221 4397 4332 4099 3782 3623 3733 4087
2910.0 4866 6120 7677 9080 9915 9644 8705 8485 9132 10000
2950.0 9207 7134 5337 3913 3333 2907 3106 3281 2709 2704
2990.0 2525 2562 2537 2671 2990 2459 2336 2198 2071 2015
3030.0 2053 2235 1882 1694 1554 1432 1335 1334 1330 1119
3070.0 1016 888 801 719 716 663 548 491 445 403
3110.0 373 349 308 313 296 272 248 223 212 194
3150.0 186 175 175 179 170 157 163 176 160 153
3190.0 144 125 120 129 140 136 138 139 121 113
3230.0 108 111 110 123 129 106 101 105 104 104
3270.0 94 96 100 86 94 93 92 97 87 92
3310.0 106 112 112 117 116 107 125 139 126 124
3350.0 139 122 107 118 113 107 110 95 82 72
3390.0 64 92 106 93 100 85 81 100 85 83
3430.0 92 83 99 96 74 86 97 105 110 119
3470.0 117 115 118 119 112 94 79 73 65 48
3510.0 50 42 24 25 37 37 45 45 36 38
3550.0 42 42 52 56 43 42 55 49 51 65
3590.0 57 34 32 37 34 43 51 36 28 4
3630.0 0 33 43 46 37 40 51 49 36 37
3670.0 46 51 55 48 33 24 10 7 28 46
3710.0 51 33 35 42 35 28 52 53 49 60
3750.0 47 60 53 13 26 57 39 36 43 36
3790.0 21 21 45 38 52 69 60 66 69 67
3830.0 57 56 64 65 77
##END=
