##TITLE=n-Amylamine
##JCAMP-DX=4.24
##DATA TYPE=INFRARED SPECTRUM
##ORIGIN=NIST Mass Spectrometry Data Center
##OWNER=NIST Standard Reference Data Program
Collection (C) 2009 copyright by the U.S. Secretary of Commerce
on behalf of the United States of America. All rights reserved.
##CAS REGISTRY NO=110-58-7
##MOLFORM=C 5 H 13 N
##$NIST SOURCE=MSDC-IR
##SPECTROMETER/DATA SYSTEM=HP-GC/MS/IRD
##STATE=gas
##XUNITS=1/CM
##YUNITS=ABSORBANCE
##XFACTOR=1.0
##YFACTOR=0.000001700
##DELTAX=4.0
##FIRSTX=550.0
##LASTX=3846.0
##FIRSTY=0.000299
##MAXX=3846
##MINX=550
##MAXY=0.017
##MINY=0
##NPOINTS=825
##XYDATA=(X++(Y..Y))
550.0 176 239 109 85 125 157 134 135 175 188
590.0 154 200 270 227 189 239 256 296 345 309
630.0 242 235 289 330 384 396 424 499 480 451
670.0 492 481 460 501 573 630 668 707 778 878
710.0 972 1031 1125 1260 1391 1581 1756 1894 2053 2238
750.0 2396 2528 2637 2713 2762 2793 2818 2761 2591 2379
790.0 2203 1967 1694 1427 1195 1062 922 829 789 754
830.0 703 634 594 567 521 511 513 505 482 422
870.0 385 381 397 379 345 343 355 339 314 326
910.0 325 300 293 267 239 257 261 242 237 247
950.0 261 251 268 310 311 306 325 358 382 363
990.0 355 378 393 417 414 406 401 400 417 411
1030.0 409 449 521 566 598 679 744 779 830 872
1070.0 878 864 826 764 703 623 553 501 464 417
1110.0 346 290 277 253 204 160 124 120 104 102
1150.0 116 92 68 40 0 11 39 36 31 39
1190.0 49 41 29 28 34 47 49 49 46 34
1230.0 45 70 54 55 65 70 93 100 91 98
1270.0 120 110 123 147 152 158 164 179 176 173
1310.0 204 226 220 230 257 278 294 319 345 378
1350.0 413 453 491 533 580 655 720 734 747 749
1390.0 725 672 585 498 424 378 366 364 369 404
1430.0 453 511 574 657 753 834 892 928 954 961
1470.0 920 849 785 706 605 501 423 359 306 255
1510.0 233 234 217 200 196 187 191 177 164 196
1550.0 207 197 189 205 232 244 258 276 315 357
1590.0 398 444 505 589 685 770 834 871 879 863
1630.0 822 743 646 549 454 364 311 280 245 222
1670.0 192 178 162 149 148 131 109 104 107 112
1710.0 108 101 104 119 116 108 104 105 119 124
1750.0 116 99 89 97 103 94 85 89 107 118
1790.0 113 106 103 103 102 112 122 122 118 119
1830.0 124 133 131 112 111 117 114 122 117 101
1870.0 99 97 88 85 94 105 102 91 95 113
1910.0 116 111 107 110 108 105 104 95 86 91
1950.0 98 92 93 101 96 89 94 89 86 88
1990.0 84 95 106 106 111 103 97 96 90 90
2030.0 98 112 107 95 104 108 95 90 93 88
2070.0 96 109 110 113 111 95 91 91 94 99
2110.0 94 100 97 93 97 98 97 95 99 85
2150.0 70 88 108 105 105 114 105 98 100 88
2190.0 95 105 101 106 106 96 101 96 95 106
2230.0 94 95 109 109 105 108 107 103 103 97
2270.0 98 103 91 91 93 88 86 88 98 93
2310.0 99 107 95 91 97 91 84 100 107 110
2350.0 110 102 89 90 97 90 109 132 118 113
2390.0 116 100 92 103 112 104 96 107 118 129
2430.0 122 108 97 100 98 94 102 112 108 112
2470.0 113 120 128 115 105 103 109 105 104 130
2510.0 136 127 129 127 133 140 144 134 126 143
2550.0 160 168 157 154 166 164 162 177 177 180
2590.0 186 181 179 178 187 199 200 201 201 196
2630.0 197 200 206 213 231 252 270 273 264 273
2670.0 279 283 305 312 326 330 314 313 323 325
2710.0 311 326 359 373 387 402 441 470 461 472
2750.0 481 481 496 509 516 505 499 510 536 578
2790.0 603 627 685 734 804 874 961 1079 1225 1399
2830.0 1622 1912 2243 2615 2998 3397 3794 4121 4402 4612
2870.0 4775 4910 4932 4850 4782 4773 4793 4884 5173 5652
2910.0 6302 7076 7867 8595 9245 9757 10000 9912 9556 9060
2950.0 8541 8032 7595 7221 6737 6139 5506 4807 3954 3099
2990.0 2407 1880 1498 1211 1015 884 785 694 641 595
3030.0 537 508 475 424 406 398 374 352 313 286
3070.0 297 295 265 244 263 269 252 252 272 257
3110.0 243 244 231 251 249 204 175 179 207 219
3150.0 217 224 240 236 225 229 184 165 167 168
3190.0 188 173 191 202 173 156 160 170 156 151
3230.0 166 169 150 161 162 138 131 136 148 185
3270.0 207 159 155 171 169 197 175 138 141 163
3310.0 166 151 158 168 167 189 220 225 213 212
3350.0 197 195 203 202 223 201 178 175 143 135
3390.0 142 130 165 197 177 137 149 158 152 165
3430.0 170 172 131 146 196 157 129 132 104 104
3470.0 133 143 127 112 100 93 97 116 160 184
3510.0 151 130 111 117 117 119 153 155 131 118
3550.0 130 124 93 88 85 107 133 137 131 106
3590.0 108 101 122 162 173 156 119 124 113 99
3630.0 134 135 132 146 131 134 187 162 126 131
3670.0 127 123 167 214 191 153 171 180 177 179
3710.0 118 92 124 157 151 132 132 154 126 72
3750.0 78 120 169 162 163 149 123 164 184 157
3790.0 156 178 176 188 198 199 180 165 157 141
3830.0 130 132 146 173 187
##END=
