##TITLE=1-Propanethiol
##JCAMP-DX=4.24
##DATA TYPE=INFRARED SPECTRUM
##ORIGIN=NIST Mass Spectrometry Data Center
##OWNER=NIST Standard Reference Data Program
Collection (C) 2009 copyright by the U.S. Secretary of Commerce
on behalf of the United States of America. All rights reserved.
##CAS REGISTRY NO=107-03-9
##MOLFORM=C 3 H 8 S
##$NIST SOURCE=MSDC-IR
##SPECTROMETER/DATA SYSTEM=HP-GC/MS/IRD
##STATE=gas
##XUNITS=1/CM
##YUNITS=ABSORBANCE
##XFACTOR=1.0
##YFACTOR=0.000002200
##DELTAX=4.0
##FIRSTX=550.0
##LASTX=3846.0
##FIRSTY=0.000350
##MAXX=3846
##MINX=550
##MAXY=0.022
##MINY=0
##NPOINTS=825
##XYDATA=(X++(Y..Y))
550.0 159 91 32 8 22 68 71 40 20 36
590.0 82 89 54 70 66 41 57 105 132 122
630.0 130 130 152 165 159 172 167 143 123 131
670.0 133 128 124 106 117 153 187 201 200 223
710.0 278 322 327 330 347 340 329 320 295 281
750.0 258 227 225 244 254 262 288 306 315 349
790.0 378 376 378 379 374 390 382 362 334 304
830.0 300 307 314 297 287 293 321 362 385 391
870.0 398 409 422 425 433 431 398 362 335 320
910.0 286 247 238 230 218 206 188 166 161 152
950.0 141 124 99 98 99 98 85 82 98 96
990.0 87 76 69 80 78 102 114 99 105 131
1030.0 156 175 172 160 210 245 251 263 293 320
1070.0 342 373 390 400 420 446 481 485 466 468
1110.0 423 378 349 303 257 217 206 179 156 161
1150.0 149 130 123 135 133 132 147 165 176 209
1190.0 235 246 287 332 367 406 462 544 638 745
1230.0 889 1030 1127 1169 1180 1197 1220 1183 1079 975
1270.0 910 897 939 1032 1116 1170 1187 1174 1153 1114
1310.0 1056 988 903 794 685 596 535 503 477 444
1350.0 439 443 444 455 479 542 617 653 675 697
1390.0 734 786 752 648 573 545 567 639 721 809
1430.0 917 1041 1158 1251 1353 1412 1430 1410 1364 1270
1470.0 1192 1117 1003 891 794 698 604 506 421 380
1510.0 333 273 238 206 172 152 134 121 124 114
1550.0 102 97 108 98 96 103 94 89 86 87
1590.0 86 90 84 81 80 79 84 79 67 65
1630.0 73 79 75 77 87 96 92 76 74 73
1670.0 71 66 66 81 82 72 74 72 62 47
1710.0 36 55 67 53 53 61 59 42 36 41
1750.0 40 37 38 32 38 46 40 36 36 32
1790.0 20 23 29 33 27 26 24 21 26 28
1830.0 33 35 37 43 44 36 32 27 25 29
1870.0 27 19 19 21 21 21 17 21 30 30
1910.0 20 11 16 17 20 20 13 16 24 19
1950.0 15 13 10 6 9 15 23 20 14 19
1990.0 17 12 6 1 6 11 13 17 17 19
2030.0 16 15 14 17 26 19 11 11 16 22
2070.0 14 9 12 19 23 24 16 5 11 25
2110.0 28 26 27 17 16 20 20 22 26 23
2150.0 16 14 28 34 21 17 26 37 37 28
2190.0 26 27 18 15 15 12 15 13 0 4
2230.0 19 25 24 19 17 22 18 11 15 15
2270.0 14 13 18 17 12 11 13 20 24 24
2310.0 23 22 24 22 21 18 11 2 7 13
2350.0 0 0 0 0 0 6 5 5 16 14
2390.0 9 13 22 36 27 20 27 30 25 21
2430.0 17 11 7 0 9 15 16 24 28 20
2470.0 20 19 17 26 27 28 28 30 36 35
2510.0 30 29 26 28 37 46 47 43 57 63
2550.0 58 71 78 81 103 122 144 174 214 232
2590.0 230 231 228 223 216 201 185 164 141 117
2630.0 106 104 102 103 105 90 93 111 112 112
2670.0 116 131 132 131 125 131 137 124 130 127
2710.0 125 130 129 132 139 147 172 190 191 196
2750.0 203 214 231 237 235 237 235 245 260 272
2790.0 279 292 316 330 360 402 436 489 560 636
2830.0 738 863 1002 1162 1356 1560 1767 1980 2190 2463
2870.0 2817 3151 3331 3328 3365 3529 3714 3848 3912 4032
2910.0 4246 4551 4988 5526 6131 6756 7335 7834 8259 8607
2950.0 8926 9238 9493 9620 9791 10000 9363 8480 7901 7220
2990.0 6399 5357 4267 3305 2563 2011 1595 1274 1023 820
3030.0 675 579 513 479 435 380 360 370 359 347
3070.0 339 339 346 310 282 299 292 274 273 267
3110.0 248 225 205 192 188 188 197 191 172 177
3150.0 182 177 165 146 147 158 172 170 154 155
3190.0 155 166 152 146 130 103 106 105 101 92
3230.0 82 72 71 60 48 43 48 61 65 49
3270.0 39 36 30 25 28 42 53 58 54 48
3310.0 43 48 53 57 65 60 58 79 83 62
3350.0 48 53 53 48 54 60 55 64 74 69
3390.0 53 52 62 49 19 0 22 48 35 35
3430.0 35 40 51 26 27 51 60 41 26 18
3470.0 32 54 48 63 73 49 34 40 60 50
3510.0 25 26 40 55 59 61 48 41 45 50
3550.0 76 81 65 65 79 64 40 64 89 80
3590.0 66 67 58 51 56 59 55 55 65 85
3630.0 112 83 53 67 74 57 55 67 74 89
3670.0 80 71 86 105 88 72 72 83 88 76
3710.0 78 90 106 110 110 87 75 71 71 72
3750.0 48 54 43 36 64 73 77 69 78 96
3790.0 77 70 69 51 46 55 54 67 80 74
3830.0 89 95 79 70 79
##END=
