##TITLE=1,5-Hexadiyne
##JCAMP-DX=4.24
##DATA TYPE=INFRARED SPECTRUM
##ORIGIN=NIST Mass Spectrometry Data Center
##OWNER=NIST Standard Reference Data Program
Collection (C) 2009 copyright by the U.S. Secretary of Commerce
on behalf of the United States of America. All rights reserved.
##CAS REGISTRY NO=628-16-0
##MOLFORM=C 6 H 6
##$NIST SOURCE=MSDC-IR
##SPECTROMETER/DATA SYSTEM=HP-GC/MS/IRD
##STATE=gas
##XUNITS=1/CM
##YUNITS=ABSORBANCE
##XFACTOR=1.0
##YFACTOR=0.000006400
##DELTAX=4.0
##FIRSTX=550.0
##LASTX=3846.0
##FIRSTY=0.001466
##MAXX=3846
##MINX=550
##MAXY=0.064
##MINY=0
##NPOINTS=825
##XYDATA=(X++(Y..Y))
550.0 229 251 274 315 324 350 357 336 334 323
590.0 317 319 399 522 678 931 1337 1857 2612 3808
630.0 5320 7290 9682 10000 8103 6113 4341 2918 1920 1271
670.0 837 576 404 293 233 187 149 126 105 92
710.0 83 73 52 43 44 39 38 41 37 24
750.0 25 34 35 38 42 41 36 27 28 40
790.0 46 45 43 42 43 44 48 58 57 59
830.0 56 44 39 39 48 46 37 38 41 53
870.0 50 34 34 34 28 22 14 9 9 17
910.0 30 49 66 82 88 92 92 79 63 40
950.0 29 29 25 24 26 25 19 13 12 23
990.0 26 16 13 15 20 26 26 22 21 17
1030.0 17 20 16 20 16 15 15 15 19 22
1070.0 22 23 29 31 24 17 25 31 28 23
1110.0 25 29 26 23 26 26 32 37 41 42
1150.0 34 33 38 37 33 41 50 46 44 47
1190.0 53 60 67 75 80 90 108 137 184 252
1230.0 354 526 774 1102 1452 1726 1892 1994 2039 1959
1270.0 1739 1398 998 674 478 368 310 285 275 262
1310.0 260 263 269 285 303 313 303 291 257 225
1350.0 204 153 102 72 53 43 43 41 33 32
1390.0 39 45 57 69 81 100 131 166 209 257
1430.0 290 328 376 360 321 311 284 242 197 166
1470.0 137 112 98 84 77 70 59 48 42 39
1510.0 33 22 19 24 26 24 22 22 19 11
1550.0 8 10 10 9 10 12 13 14 13 11
1590.0 6 5 12 16 13 12 11 12 11 13
1630.0 16 20 17 15 22 22 21 16 10 11
1670.0 14 17 15 15 15 11 12 15 21 22
1710.0 19 15 15 11 10 11 14 14 11 10
1750.0 9 14 19 15 13 16 20 17 13 11
1790.0 11 14 11 10 12 11 10 12 11 12
1830.0 14 13 11 11 8 8 10 12 13 10
1870.0 8 9 11 10 9 13 16 17 15 15
1910.0 17 15 14 16 14 14 15 16 15 15
1950.0 13 14 17 15 11 12 11 8 10 10
1990.0 14 19 16 15 15 16 13 16 16 15
2030.0 14 20 23 26 29 28 27 26 24 24
2070.0 23 24 29 32 41 53 68 85 111 145
2110.0 182 214 235 246 240 220 194 156 112 78
2150.0 55 44 41 37 30 26 30 28 19 15
2190.0 17 20 20 19 16 15 15 16 14 11
2230.0 15 20 21 16 16 19 21 22 22 25
2270.0 23 22 23 20 16 15 21 23 19 19
2310.0 23 21 16 15 19 20 20 20 14 13
2350.0 16 22 22 16 14 13 16 15 9 11
2390.0 13 16 22 21 20 21 21 22 23 22
2430.0 21 22 26 28 24 22 22 21 23 24
2470.0 21 17 20 17 13 12 17 20 11 8
2510.0 12 14 13 13 15 12 10 13 15 14
2550.0 14 13 12 15 22 27 28 31 30 27
2590.0 27 27 30 31 30 26 13 13 21 22
2630.0 23 27 29 28 30 27 34 40 44 40
2670.0 43 49 46 49 68 75 64 50 42 34
2710.0 30 22 14 15 16 20 22 21 24 27
2750.0 24 22 27 30 29 29 26 21 15 17
2790.0 25 28 29 26 30 35 35 43 47 56
2830.0 72 86 97 114 141 162 182 189 183 185
2870.0 181 162 146 132 131 129 130 150 186 234
2910.0 297 378 481 589 683 748 817 898 905 871
2950.0 865 861 775 652 550 446 370 294 239 202
2990.0 159 128 107 88 75 67 51 39 38 37
3030.0 29 26 27 24 27 26 23 26 24 20
3070.0 22 20 20 27 22 20 23 24 27 23
3110.0 22 27 24 20 23 22 19 25 29 19
3150.0 14 15 16 20 23 20 24 23 14 8
3190.0 16 25 22 21 27 31 24 27 36 37
3230.0 32 41 60 71 76 95 117 134 153 186
3270.0 238 310 403 490 564 699 974 1315 1523 1596
3310.0 1884 2601 3455 3683 3227 2900 3091 3106 2270 1302
3350.0 746 483 369 301 256 220 183 151 135 112
3390.0 92 76 67 64 62 56 48 40 38 38
3430.0 31 37 36 33 24 16 24 28 24 28
3470.0 31 28 28 24 20 22 25 24 23 20
3510.0 22 25 25 22 13 19 16 3 7 17
3550.0 22 24 15 14 20 13 7 7 7 6
3590.0 3 8 9 7 6 10 16 16 17 9
3630.0 13 22 26 28 33 27 14 8 0 2
3670.0 12 11 6 11 17 19 22 13 5 7
3710.0 14 14 4 11 30 27 12 7 9 7
3750.0 7 15 25 24 15 15 19 17 20 22
3790.0 12 10 9 8 15 15 15 17 13 16
3830.0 15 16 16 7 6
##END=
