##TITLE=Divinyl ether
##JCAMP-DX=4.24
##DATA TYPE=INFRARED SPECTRUM
##ORIGIN=NIST Mass Spectrometry Data Center
##OWNER=NIST Standard Reference Data Program
Collection (C) 2009 copyright by the U.S. Secretary of Commerce
on behalf of the United States of America. All rights reserved.
##CAS REGISTRY NO=109-93-3
##MOLFORM=C 4 H 6 O
##$NIST SOURCE=MSDC-IR
##SPECTROMETER/DATA SYSTEM=HP-GC/MS/IRD
##STATE=gas
##XUNITS=1/CM
##YUNITS=ABSORBANCE
##XFACTOR=1.0
##YFACTOR=0.000003200
##DELTAX=4.0
##FIRSTX=550.0
##LASTX=3846.0
##FIRSTY=0.000246
##MAXX=3846
##MINX=550
##MAXY=0.032
##MINY=0
##NPOINTS=825
##XYDATA=(X++(Y..Y))
550.0 77 76 53 55 56 88 48 1 33 66
590.0 77 46 41 58 34 49 88 90 89 79
630.0 27 26 49 69 64 58 82 101 122 131
670.0 164 193 195 196 200 193 227 270 276 287
710.0 284 263 257 255 251 239 223 205 190 182
750.0 184 211 231 227 240 267 283 304 349 385
790.0 417 468 519 597 707 827 986 1111 1251 1424
830.0 1566 1783 2033 2093 2160 2239 2223 2223 2203 2142
870.0 2045 1932 1819 1714 1610 1525 1443 1359 1311 1299
910.0 1292 1299 1315 1327 1359 1411 1480 1563 1608 1594
950.0 1555 1528 1524 1442 1374 1405 1494 1597 1634 1620
990.0 1667 1723 1743 1829 1857 1713 1497 1291 1143 1026
1030.0 868 726 610 471 380 313 267 248 256 277
1070.0 246 235 260 269 286 313 353 393 425 467
1110.0 508 512 521 598 688 756 850 1018 1296 1685
1150.0 2246 3032 4008 5061 6069 6884 7483 8060 8763 9536
1190.0 10000 9930 9488 8894 8348 7809 7341 7041 6387 5096
1230.0 3584 2302 1467 1007 757 626 540 502 485 470
1270.0 457 444 437 448 476 521 565 602 663 788
1310.0 1008 1275 1477 1517 1429 1379 1303 1273 1291 1159
1350.0 937 733 624 644 763 898 991 1042 1088 1113
1390.0 1131 1117 1018 845 650 501 401 342 311 290
1430.0 279 275 262 248 237 222 209 199 182 167
1470.0 156 145 143 148 149 159 166 179 198 216
1510.0 244 278 330 381 420 464 522 554 574 617
1550.0 654 684 714 746 785 853 950 1114 1333 1644
1590.0 2105 2806 3807 5156 6743 8301 9403 9796 9801 9841
1630.0 9913 9800 8640 6586 4661 3383 2651 2152 1661 1264
1670.0 1008 842 749 681 608 544 490 436 392 353
1710.0 314 275 250 227 204 192 178 175 170 155
1750.0 148 144 145 143 142 142 145 150 148 148
1790.0 143 141 145 139 135 150 154 158 167 165
1830.0 167 179 197 210 224 240 261 279 288 286
1870.0 284 278 264 251 236 208 187 176 159 134
1910.0 115 100 93 88 71 68 68 64 62 56
1950.0 52 60 65 59 63 63 59 66 79 91
1990.0 96 95 94 98 109 142 162 166 188 206
2030.0 213 231 237 236 224 210 205 199 196 195
2070.0 199 194 184 186 170 145 134 129 123 110
2110.0 98 87 82 85 80 74 69 67 64 61
2150.0 62 61 63 60 69 84 93 95 96 100
2190.0 93 87 86 89 91 89 76 67 69 76
2230.0 79 64 51 65 77 79 86 72 49 52
2270.0 54 51 55 56 58 62 67 83 96 100
2310.0 105 108 116 116 119 124 123 122 126 125
2350.0 120 117 102 105 100 82 75 69 59 46
2390.0 39 40 46 53 50 43 39 45 56 51
2430.0 54 61 57 69 75 60 60 74 77 73
2470.0 72 94 103 91 95 96 85 76 55 45
2510.0 49 54 56 48 38 36 35 35 33 34
2550.0 37 31 42 48 35 31 31 29 37 41
2590.0 44 44 40 37 40 60 68 57 47 50
2630.0 58 50 33 31 21 13 22 9 15 26
2670.0 28 40 24 21 32 28 23 21 24 27
2710.0 31 28 27 28 26 16 1 10 25 23
2750.0 13 5 9 28 18 4 26 43 35 26
2790.0 32 40 42 38 35 41 50 60 57 45
2830.0 35 35 45 61 66 60 60 57 43 35
2870.0 42 43 38 32 33 56 51 48 61 46
2910.0 46 51 52 49 52 61 72 74 78 99
2950.0 98 105 123 133 139 145 166 177 198 216
2990.0 200 185 197 196 208 235 247 281 307 326
3030.0 353 381 392 408 426 445 457 460 449 417
3070.0 404 423 415 382 382 387 375 381 377 392
3110.0 441 484 491 452 445 441 408 405 365 284
3150.0 216 164 132 98 82 77 72 80 76 59
3190.0 55 66 75 75 58 40 45 64 52 34
3230.0 33 41 45 36 38 51 58 69 88 91
3270.0 57 50 65 60 52 40 16 9 47 53
3310.0 70 68 7 1 25 46 60 46 24 28
3350.0 23 13 29 38 24 20 31 19 19 24
3390.0 31 54 70 64 55 33 21 30 24 26
3430.0 13 0 10 24 26 25 23 21 27 43
3470.0 48 50 49 28 13 28 45 35 38 52
3510.0 52 55 37 12 49 62 51 51 37 30
3550.0 34 60 90 97 86 48 38 58 22 8
3590.0 29 29 42 56 49 69 55 21 24 14
3630.0 34 85 84 47 45 50 41 51 59 47
3670.0 22 22 49 39 19 21 27 33 32 36
3710.0 55 75 62 48 35 19 43 50 29 37
3750.0 26 1 26 30 34 55 59 64 57 63
3790.0 74 58 39 26 30 34 26 22 23 20
3830.0 16 16 6 6 30
##END=
