##TITLE=Methoxyacetone
##JCAMP-DX=4.24
##DATA TYPE=INFRARED SPECTRUM
##ORIGIN=NIST Mass Spectrometry Data Center
##OWNER=NIST Standard Reference Data Program
Collection (C) 2009 copyright by the U.S. Secretary of Commerce
on behalf of the United States of America. All rights reserved.
##CAS REGISTRY NO=5878-19-3
##MOLFORM=C 4 H 8 O 2
##$NIST SOURCE=MSDC-IR
##SPECTROMETER/DATA SYSTEM=HP-GC/MS/IRD
##STATE=gas
##XUNITS=1/CM
##YUNITS=ABSORBANCE
##XFACTOR=1.0
##YFACTOR=0.000000900
##DELTAX=4.0
##FIRSTX=550.0
##LASTX=3846.0
##FIRSTY=0.000762
##MAXX=3846
##MINX=550
##MAXY=0.009
##MINY=0
##NPOINTS=825
##XYDATA=(X++(Y..Y))
550.0 847 976 716 635 527 571 533 415 289 235
590.0 390 503 475 522 624 527 451 490 424 396
630.0 406 289 148 243 297 158 74 37 13 39
670.0 110 178 151 69 94 160 180 174 172 135
710.0 114 155 110 144 256 274 270 264 162 204
750.0 316 272 271 307 334 379 324 282 334 350
790.0 282 237 211 184 190 69 96 189 244 223
830.0 172 255 213 127 158 227 233 241 241 240
870.0 273 320 325 343 356 329 432 597 697 689
910.0 734 885 1013 1113 1179 1229 1231 1329 1449 1468
950.0 1467 1449 1379 1292 1292 1286 1171 1107 1023 871
990.0 788 736 702 653 694 708 600 445 474 632
1030.0 629 606 697 810 876 1004 1079 1123 1351 1532
1070.0 1621 1713 1848 2106 2384 2779 3421 4257 5300 6473
1110.0 7647 8691 9420 9824 10000 9758 9032 7884 6656 5584
1150.0 4741 4200 3786 3542 3491 3507 3628 3836 4082 4388
1190.0 4669 4861 4962 5035 5137 5073 4830 4566 4267 4000
1230.0 3729 3431 3108 2787 2433 2120 1928 1787 1661 1567
1270.0 1482 1410 1346 1261 1157 1074 992 941 925 932
1310.0 971 979 1010 1145 1306 1502 1757 2078 2460 2859
1350.0 3232 3488 3590 3591 3609 3425 3007 2508 2040 1686
1390.0 1436 1307 1250 1236 1279 1352 1427 1511 1621 1694
1430.0 1707 1696 1699 1728 1742 1675 1610 1534 1480 1365
1470.0 1194 1024 896 819 760 678 606 565 542 501
1510.0 485 507 483 462 452 429 437 417 435 468
1550.0 419 376 343 378 416 390 344 366 418 388
1590.0 334 332 345 348 335 283 282 321 319 336
1630.0 362 327 347 367 354 360 360 444 522 536
1670.0 581 682 782 925 1086 1283 1506 1745 2167 2727
1710.0 3426 4284 5331 6492 7521 8261 8713 8923 8896 8530
1750.0 7657 6535 5456 4501 3674 2962 2424 1999 1595 1284
1790.0 1045 885 730 607 552 485 438 401 384 353
1830.0 328 316 306 281 261 270 273 236 203 199
1870.0 186 224 232 176 162 180 175 159 176 186
1910.0 167 151 161 192 191 155 123 129 173 198
1950.0 175 151 141 162 161 115 109 126 144 143
1990.0 135 188 186 174 193 190 196 192 202 214
2030.0 211 214 206 207 230 237 223 225 234 210
2070.0 222 249 240 246 268 249 233 217 176 176
2110.0 232 277 273 257 231 200 220 222 197 220
2150.0 237 195 183 182 152 122 125 152 158 158
2190.0 171 166 131 127 102 102 140 85 69 97
2230.0 100 109 95 112 111 103 100 67 39 78
2270.0 103 92 104 95 90 98 76 65 86 94
2310.0 74 80 108 91 43 23 54 77 54 20
2350.0 17 40 47 19 24 44 86 133 114 91
2390.0 98 102 83 106 138 96 63 80 66 50
2430.0 76 80 40 45 68 71 70 42 37 87
2470.0 120 106 110 118 98 68 60 71 61 33
2510.0 43 73 70 60 53 41 80 96 94 106
2550.0 96 99 84 27 40 81 83 92 65 47
2590.0 80 111 98 88 90 76 46 33 86 127
2630.0 73 20 30 103 121 86 72 92 84 124
2670.0 167 125 145 159 151 142 94 100 163 167
2710.0 122 126 155 147 180 201 166 184 224 261
2750.0 287 281 290 325 300 337 403 467 561 607
2790.0 696 824 918 1037 1275 1583 1880 2243 2591 2815
2830.0 2955 3093 3162 3111 3000 2833 2632 2522 2484 2488
2870.0 2559 2626 2712 2809 2930 3046 3110 3221 3363 3433
2910.0 3550 3744 3970 4155 4268 4325 4330 4222 4000 3741
2950.0 3492 3175 2789 2551 2334 2152 2097 2074 2131 2249
2990.0 2357 2354 2273 2275 2196 2043 1832 1522 1319 1171
3030.0 1026 947 918 806 688 633 594 620 615 526
3070.0 500 552 573 496 449 478 393 360 422 419
3110.0 407 314 222 238 215 178 170 97 116 120
3150.0 125 168 109 125 172 168 180 152 142 178
3190.0 135 53 65 84 48 73 94 101 92 14
3230.0 0 98 107 63 60 43 43 30 43 83
3270.0 64 12 47 84 160 209 143 76 86 148
3310.0 160 126 146 102 81 94 159 188 120 94
3350.0 100 148 205 262 206 118 99 159 156 85
3390.0 116 90 36 109 167 156 182 181 101 123
3430.0 204 275 252 263 271 306 367 408 456 426
3470.0 365 333 286 296 298 208 235 317 288 261
3510.0 311 316 269 220 130 168 238 254 202 97
3550.0 158 240 269 211 127 111 117 143 175 209
3590.0 187 181 172 141 94 74 185 194 164 113
3630.0 91 129 128 132 106 123 199 247 223 240
3670.0 187 98 96 116 148 53 51 186 140 27
3710.0 83 139 128 74 97 131 76 89 61 78
3750.0 119 114 90 83 90 146 202 140 88 112
3790.0 191 210 176 133 86 86 111 126 140 217
3830.0 256 175 130 121 211
##END=
