##TITLE=2-Methyl-1,3-butadiene
##JCAMP-DX=4.24
##DATA TYPE=INFRARED SPECTRUM
##ORIGIN=NIST Mass Spectrometry Data Center
##OWNER=NIST Standard Reference Data Program
Collection (C) 2009 copyright by the U.S. Secretary of Commerce
on behalf of the United States of America. All rights reserved.
##CAS REGISTRY NO=78-79-5
##MOLFORM=C 5 H 8
##$NIST SOURCE=MSDC-IR
##SPECTROMETER/DATA SYSTEM=HP-GC/MS/IRD
##STATE=gas
##XUNITS=1/CM
##YUNITS=ABSORBANCE
##XFACTOR=1.0
##YFACTOR=0.000002400
##DELTAX=4.0
##FIRSTX=550.0
##LASTX=3846.0
##FIRSTY=0.000497
##MAXX=3846
##MINX=550
##MAXY=0.024
##MINY=0
##NPOINTS=825
##XYDATA=(X++(Y..Y))
550.0 207 175 102 44 0 43 64 54 25 11
590.0 26 19 13 72 75 19 48 95 69 62
630.0 98 115 120 120 72 47 91 135 90 51
670.0 83 80 49 50 77 54 44 51 48 54
710.0 31 55 74 44 73 113 126 111 124 161
750.0 165 156 129 115 123 133 135 134 124 70
790.0 32 53 78 85 102 125 123 147 130 141
830.0 199 246 337 460 618 864 1204 1660 2216 2816
870.0 3478 4085 4692 5417 6965 9798 10000 8093 8673 9313
910.0 7889 6865 6223 5225 4382 3658 2975 2369 1900 1559
950.0 1353 1302 1342 1416 1490 1575 1687 1875 2288 2984
990.0 3015 2133 1657 1594 1517 1426 1278 1078 883 702
1030.0 574 519 472 458 509 598 674 699 652 607
1070.0 609 552 505 486 426 331 231 171 145 126
1110.0 98 73 96 94 75 66 57 69 82 74
1150.0 58 84 80 63 73 70 67 72 94 113
1190.0 100 78 80 83 88 122 137 135 154 176
1230.0 189 205 206 213 246 248 258 280 268 263
1270.0 262 260 280 303 312 325 343 346 334 336
1310.0 332 323 320 306 294 294 309 326 364 430
1350.0 501 587 695 816 958 1071 1154 1215 1296 1459
1390.0 1627 1661 1620 1569 1522 1502 1498 1472 1449 1421
1430.0 1384 1372 1431 1521 1472 1354 1252 1168 1142 1143
1470.0 1064 976 908 811 692 571 489 429 390 353
1510.0 336 334 319 308 316 333 338 332 352 394
1550.0 454 532 653 873 1143 1464 1868 2329 2756 3084
1590.0 3265 3331 3378 3391 3295 3137 2843 2351 1844 1453
1630.0 1199 1031 918 830 758 701 612 530 434 339
1670.0 270 215 178 141 112 118 112 89 99 120
1710.0 125 123 120 129 142 135 131 144 148 165
1750.0 191 220 277 370 483 592 714 827 893 955
1790.0 1014 1085 1177 1208 1153 1066 961 857 800 762
1830.0 688 595 493 393 319 268 219 172 128 105
1870.0 93 88 87 87 81 71 71 72 67 73
1910.0 83 71 65 65 64 62 63 69 71 73
1950.0 79 83 80 78 81 84 88 87 82 72
1990.0 56 53 56 50 46 48 39 34 38 43
2030.0 52 59 55 53 57 60 59 57 56 48
2070.0 51 60 57 50 47 46 41 39 39 39
2110.0 41 41 38 35 37 42 50 51 52 51
2150.0 36 37 43 37 33 33 25 21 19 19
2190.0 25 17 4 6 9 9 11 19 18 24
2230.0 25 18 21 32 29 34 40 37 42 31
2270.0 19 25 28 27 28 28 35 43 49 39
2310.0 30 46 47 32 43 50 48 38 41 53
2350.0 58 49 34 25 21 27 46 46 52 66
2390.0 64 60 59 57 56 57 54 55 51 51
2430.0 51 50 58 56 50 52 51 43 55 65
2470.0 48 43 49 46 47 43 40 47 42 40
2510.0 37 34 41 38 30 37 44 46 52 38
2550.0 31 48 55 39 35 53 50 40 43 40
2590.0 46 57 61 63 55 42 46 40 30 48
2630.0 66 57 50 47 42 49 44 37 38 47
2670.0 64 67 61 59 59 63 66 72 81 85
2710.0 91 99 102 119 133 128 129 140 150 158
2750.0 159 162 155 139 130 132 133 145 151 139
2790.0 152 165 181 207 222 236 252 266 291 312
2830.0 312 341 401 462 535 622 714 793 874 935
2870.0 989 1070 1160 1229 1302 1401 1503 1596 1726 1871
2910.0 2021 2182 2363 2539 2677 2766 2816 2892 3024 3219
2950.0 3427 3692 3928 3932 4014 4220 4364 4432 4516 4552
2990.0 4515 4474 4342 4088 3733 3312 2910 2653 2484 2351
3030.0 2211 2004 1818 1703 1655 1673 1760 1909 2135 2456
3070.0 2884 3391 3837 4049 4117 4143 4023 3938 3828 3577
3110.0 3128 2460 1812 1279 914 694 532 439 384 318
3150.0 283 267 234 202 181 173 161 138 113 107
3190.0 108 104 116 120 118 120 109 90 85 88
3230.0 93 109 112 92 83 79 72 68 43 44
3270.0 70 71 59 55 57 55 30 19 28 44
3310.0 60 34 22 33 28 35 53 51 61 67
3350.0 43 44 41 35 41 57 70 74 84 74
3390.0 78 82 62 57 61 61 61 66 60 65
3430.0 59 50 49 54 50 43 29 28 36 55
3470.0 77 68 69 83 85 68 51 61 80 80
3510.0 75 79 84 85 70 60 80 95 88 59
3550.0 58 84 89 69 61 68 75 73 70 69
3590.0 64 66 60 55 32 4 17 23 35 23
3630.0 30 87 90 55 31 37 37 47 74 69
3670.0 34 25 60 75 41 31 56 66 64 63
3710.0 62 69 96 94 54 37 36 29 18 26
3750.0 48 49 39 59 82 83 80 79 78 68
3790.0 61 62 64 62 59 73 93 86 73 57
3830.0 52 63 55 62 79
##END=
