##TITLE=2,5-Dihydrofuran
##JCAMP-DX=4.24
##DATA TYPE=INFRARED SPECTRUM
##ORIGIN=NIST Mass Spectrometry Data Center
##OWNER=NIST Standard Reference Data Program
Collection (C) 2009 copyright by the U.S. Secretary of Commerce
on behalf of the United States of America. All rights reserved.
##CAS REGISTRY NO=1708-29-8
##MOLFORM=C 4 H 6 O
##$NIST SOURCE=MSDC-IR
##SPECTROMETER/DATA SYSTEM=HP-GC/MS/IRD
##STATE=gas
##XUNITS=1/CM
##YUNITS=ABSORBANCE
##XFACTOR=1.0
##YFACTOR=0.000004600
##DELTAX=4.0
##FIRSTX=550.0
##LASTX=3846.0
##FIRSTY=0.000313
##MAXX=3846
##MINX=550
##MAXY=0.046
##MINY=0
##NPOINTS=825
##XYDATA=(X++(Y..Y))
550.0 68 68 54 11 3 46 71 80 72 84
590.0 85 74 113 161 178 251 345 491 677 893
630.0 1121 1304 1385 1352 1288 1359 2684 5190 4194 1512
670.0 1147 1380 1534 1555 1430 1202 939 715 563 483
710.0 467 457 496 527 557 584 605 648 693 677
750.0 609 515 394 307 260 232 244 279 286 265
790.0 250 242 241 231 221 208 187 169 138 118
830.0 111 123 133 137 168 198 243 311 397 510
870.0 653 812 958 1093 1208 1315 1433 1542 1637 1712
910.0 1730 1618 1317 994 783 646 550 480 434 412
950.0 419 446 499 568 656 761 868 1002 1141 1268
990.0 1380 1415 1348 1211 1463 2077 2238 1862 1399 1283
1030.0 1438 1625 1725 1787 1897 2072 2389 2871 3481 4166
1070.0 4816 5330 5629 5701 5629 5528 5388 5152 4845 4473
1110.0 3924 3131 2304 1620 1094 748 546 417 343 304
1150.0 288 283 265 267 281 248 225 207 191 184
1190.0 174 166 148 136 134 134 131 137 159 173
1230.0 180 180 177 179 160 129 103 85 70 64
1270.0 56 52 58 67 75 92 115 140 173 211
1310.0 268 341 416 493 559 606 641 659 653 633
1350.0 604 580 574 535 466 396 318 245 180 137
1390.0 106 85 63 52 56 59 57 55 57 58
1430.0 55 59 57 57 64 68 85 105 116 129
1470.0 138 139 137 137 133 128 129 120 107 93
1510.0 76 63 55 58 56 62 78 99 125 150
1550.0 180 204 227 246 258 268 275 274 265 244
1590.0 217 190 157 124 100 82 69 57 40 31
1630.0 32 36 34 28 18 14 34 48 56 71
1670.0 87 100 106 116 122 115 112 126 129 118
1710.0 113 99 79 62 59 63 67 69 73 85
1750.0 100 103 99 102 106 111 110 95 83 79
1790.0 80 75 70 73 72 74 74 68 65 60
1830.0 54 46 41 36 30 27 21 14 12 12
1870.0 11 16 24 21 25 36 38 45 61 74
1910.0 85 91 90 98 112 126 130 129 135 136
1950.0 132 134 140 145 149 150 149 153 166 174
1990.0 166 156 138 110 87 71 57 49 53 55
2030.0 59 56 57 59 55 59 60 57 54 49
2070.0 42 34 29 21 19 20 17 12 14 13
2110.0 8 8 7 0 0 9 10 8 11 15
2150.0 16 13 15 22 31 38 44 43 38 35
2190.0 32 37 42 42 46 49 43 36 35 36
2230.0 40 42 43 44 43 41 41 40 36 34
2270.0 37 33 24 15 8 10 10 8 6 3
2310.0 5 0 0 0 0 0 0 0 3 2
2350.0 0 1 10 19 17 7 7 10 10 13
2390.0 12 15 12 8 10 10 13 11 6 13
2430.0 20 19 12 11 15 16 18 24 26 25
2470.0 33 35 33 43 38 31 28 19 23 34
2510.0 35 33 28 28 31 34 29 22 18 16
2550.0 17 15 21 26 27 15 19 31 34 37
2590.0 34 35 44 53 69 78 83 99 127 156
2630.0 176 197 217 231 242 255 262 269 280 291
2670.0 294 293 283 281 291 308 330 358 381 406
2710.0 447 482 507 528 550 583 597 626 642 659
2750.0 684 642 660 704 655 595 573 558 551 554
2790.0 557 574 608 652 734 848 989 1196 1508 1948
2830.0 2580 3526 4788 6149 7272 7924 8352 8683 8757 8623
2870.0 8482 8468 9044 9975 10000 9427 6586 3843 3258 3097
2910.0 2978 2704 2336 1920 1543 1245 1061 965 923 911
2950.0 903 887 865 861 871 858 820 787 735 662
2990.0 589 533 484 453 420 392 369 355 342 328
3030.0 317 302 281 274 282 300 333 380 450 529
3070.0 597 660 698 719 732 737 731 698 674 644
3110.0 588 491 354 235 150 96 68 46 31 23
3150.0 24 27 26 26 23 23 23 22 17 19
3190.0 39 43 30 32 37 32 29 35 33 20
3230.0 20 19 19 19 20 21 21 32 39 35
3270.0 36 41 36 35 38 36 36 41 38 26
3310.0 24 22 14 1 6 11 7 9 8 13
3350.0 17 16 14 6 2 12 32 31 25 32
3390.0 19 2 7 13 14 7 5 12 14 17
3430.0 19 26 26 16 6 1 6 12 16 6
3470.0 1 15 17 18 23 18 10 7 3 4
3510.0 17 27 23 8 12 20 29 31 23 22
3550.0 21 8 9 21 22 17 18 18 9 10
3590.0 20 14 9 13 15 16 9 11 25 28
3630.0 26 24 23 23 20 29 32 16 13 22
3670.0 35 27 16 21 27 26 24 30 25 13
3710.0 17 33 47 50 49 51 50 54 58 51
3750.0 53 70 86 82 89 102 99 93 93 81
3790.0 74 83 72 62 66 64 63 69 63 63
3830.0 73 72 61 63 70
##END=
