##TITLE=Cyclopentene
##JCAMP-DX=4.24
##DATA TYPE=INFRARED SPECTRUM
##ORIGIN=NIST Mass Spectrometry Data Center
##OWNER=NIST Standard Reference Data Program
Collection (C) 2009 copyright by the U.S. Secretary of Commerce
on behalf of the United States of America. All rights reserved.
##CAS REGISTRY NO=142-29-0
##MOLFORM=C 5 H 8
##$NIST SOURCE=MSDC-IR
##SPECTROMETER/DATA SYSTEM=HP-GC/MS/IRD
##STATE=gas
##XUNITS=1/CM
##YUNITS=ABSORBANCE
##XFACTOR=1.0
##YFACTOR=0.000001800
##DELTAX=4.0
##FIRSTX=550.0
##LASTX=3846.0
##FIRSTY=0.000284
##MAXX=3846
##MINX=550
##MAXY=0.018
##MINY=0
##NPOINTS=825
##XYDATA=(X++(Y..Y))
550.0 158 126 192 278 345 338 335 402 423 428
590.0 635 909 865 735 733 755 759 773 797 823
630.0 848 862 822 874 1031 1063 1107 1251 1399 1591
670.0 1808 1978 1992 1914 1847 2209 3662 3564 2091 1660
710.0 1595 1631 1658 1601 1468 1206 885 665 535 459
750.0 410 373 301 218 181 176 158 135 118 94
790.0 93 81 71 62 59 69 54 38 35 25
830.0 29 27 27 54 65 73 123 183 215 261
870.0 322 409 515 612 704 782 845 885 819 703
910.0 603 548 536 488 400 303 208 159 146 106
950.0 57 52 103 123 119 147 150 161 198 180
990.0 128 113 124 171 255 319 410 499 548 581
1030.0 587 610 780 1186 1208 694 410 398 427 433
1070.0 366 282 200 125 87 46 3 10 17 35
1110.0 66 67 65 89 110 90 89 104 109 124
1150.0 129 109 113 136 154 166 163 167 182 199
1190.0 208 218 261 300 371 415 351 316 308 286
1230.0 283 277 261 227 211 218 203 213 239 254
1270.0 267 279 303 316 327 328 320 312 293 276
1310.0 260 240 231 235 247 268 300 315 306 310
1350.0 321 302 277 275 273 253 208 167 125 107
1390.0 113 106 112 132 150 173 184 191 218 251
1430.0 279 303 333 393 431 410 389 374 355 345
1470.0 326 285 251 208 165 135 110 86 56 36
1510.0 33 32 24 27 38 48 50 41 34 37
1550.0 45 58 67 69 70 93 113 131 170 208
1590.0 250 284 325 363 394 430 453 455 451 442
1630.0 423 391 350 302 257 213 176 147 109 89
1670.0 84 78 70 59 55 46 38 27 31 46
1710.0 42 40 42 44 52 58 52 54 55 50
1750.0 40 38 37 31 35 32 32 40 38 32
1790.0 30 41 48 46 43 42 47 44 34 28
1830.0 28 32 33 32 38 45 39 45 54 41
1870.0 38 44 42 42 40 38 39 48 52 58
1910.0 54 39 37 40 36 39 47 41 41 41
1950.0 42 46 51 57 60 58 62 64 62 60
1990.0 50 43 42 37 26 12 13 11 1 6
2030.0 0 2 16 15 22 25 28 30 34 40
2070.0 42 49 47 42 38 36 29 26 31 37
2110.0 31 24 22 27 34 33 33 40 52 49
2150.0 46 47 49 47 49 59 56 67 73 55
2190.0 46 49 45 42 57 55 40 41 51 46
2230.0 45 53 43 37 40 45 45 41 43 41
2270.0 44 48 44 43 40 37 41 42 45 45
2310.0 36 36 39 45 51 47 51 48 42 46
2350.0 35 26 15 8 13 18 11 1 1 15
2390.0 15 10 24 29 18 7 0 7 16 9
2430.0 11 17 20 17 19 19 19 10 10 21
2470.0 20 20 14 14 28 33 26 16 17 24
2510.0 20 19 31 20 7 24 31 38 37 28
2550.0 32 32 45 52 34 30 50 48 19 13
2590.0 34 28 11 12 10 14 29 25 6 7
2630.0 15 19 20 13 23 23 25 26 24 35
2670.0 35 29 34 36 25 21 37 50 62 76
2710.0 79 95 102 107 124 131 146 162 175 185
2750.0 187 188 185 196 210 224 247 246 252 268
2790.0 285 312 348 404 475 560 667 806 1002 1295
2830.0 1712 2255 2918 3514 3968 4339 4744 5245 5356 5205
2870.0 5333 5562 5706 5663 5488 5298 5174 5210 5422 5768
2910.0 6808 7361 6799 6830 7452 8113 8456 8522 8498 8365
2950.0 8433 8754 9513 10000 8625 6613 5235 4614 4234 3732
2990.0 3125 2480 1940 1514 1202 993 874 823 858 958
3030.0 1132 1376 1709 2079 2400 2641 2769 2856 2950 2976
3070.0 2899 2755 2616 2435 2101 1646 1181 786 511 337
3110.0 212 147 133 113 85 80 66 54 52 51
3150.0 52 44 40 34 17 20 41 37 21 33
3190.0 57 80 93 88 61 52 68 61 49 50
3230.0 80 79 45 46 50 21 31 31 8 24
3270.0 32 47 65 37 24 13 36 59 45 57
3310.0 53 32 27 36 25 13 25 39 43 38
3350.0 27 21 19 30 38 41 28 30 35 7
3390.0 0 27 35 7 8 29 23 39 37 29
3430.0 46 55 30 2 23 30 30 37 40 52
3470.0 58 37 15 29 43 43 39 45 37 13
3510.0 33 55 45 51 64 56 57 69 64 79
3550.0 72 45 47 32 10 35 64 52 37 63
3590.0 75 66 62 67 60 28 11 14 41 37
3630.0 14 32 26 19 39 45 39 33 10 36
3670.0 67 51 52 58 53 55 69 68 39 38
3710.0 47 71 80 57 48 62 52 34 34 14
3750.0 18 15 19 30 50 37 37 54 41 48
3790.0 66 71 67 71 84 92 80 90 130 141
3830.0 158 159 167 178 144
##END=
