##TITLE=2-Methyl-2-aminobutane
##JCAMP-DX=4.24
##DATA TYPE=INFRARED SPECTRUM
##ORIGIN=NIST Mass Spectrometry Data Center
##OWNER=NIST Standard Reference Data Program
Collection (C) 2009 copyright by the U.S. Secretary of Commerce
on behalf of the United States of America. All rights reserved.
##CAS REGISTRY NO=594-39-8
##MOLFORM=C 5 H 13 N
##$NIST SOURCE=MSDC-IR
##SPECTROMETER/DATA SYSTEM=HP-GC/MS/IRD
##STATE=gas
##XUNITS=1/CM
##YUNITS=ABSORBANCE
##XFACTOR=1.0
##YFACTOR=0.000007700
##DELTAX=4.0
##FIRSTX=550.0
##LASTX=3846.0
##FIRSTY=0.001155
##MAXX=3846
##MINX=550
##MAXY=0.077
##MINY=0
##NPOINTS=825
##XYDATA=(X++(Y..Y))
550.0 150 140 23 29 26 50 64 69 70 68
590.0 64 64 80 88 86 87 92 102 128 128
630.0 120 132 155 165 170 187 208 233 263 289
670.0 308 326 347 371 398 426 461 502 541 577
710.0 610 630 649 671 699 729 767 821 886 976
750.0 1090 1206 1336 1480 1624 1773 1945 2120 2297 2477
790.0 2653 2811 2930 2992 2977 2874 2674 2398 2102 1780
830.0 1449 1155 917 739 593 487 431 400 375 366
870.0 377 376 377 378 365 345 321 288 260 233
910.0 194 172 170 175 178 186 202 213 234 257
950.0 256 249 235 222 207 189 173 161 152 160
990.0 182 208 239 276 312 326 330 328 316 303
1030.0 280 267 265 253 239 226 216 200 181 169
1070.0 142 106 78 68 62 52 48 64 82 79
1110.0 80 89 98 113 119 121 137 153 176 212
1150.0 250 297 358 432 519 621 736 861 994 1115
1190.0 1224 1320 1382 1391 1353 1270 1151 1010 871 754
1230.0 645 561 497 458 425 407 398 391 395 405
1270.0 412 409 403 391 373 349 329 303 276 261
1310.0 247 232 220 220 230 249 283 340 433 551
1350.0 690 847 1011 1214 1476 1625 1588 1565 1583 1474
1390.0 1233 982 773 587 428 314 251 230 232 258
1430.0 318 398 496 609 745 887 1009 1106 1173 1212
1470.0 1192 1087 961 843 727 605 492 396 329 285
1510.0 253 231 217 208 197 194 193 198 205 204
1550.0 211 224 240 251 264 284 314 344 380 425
1590.0 490 561 632 707 796 873 924 953 958 929
1630.0 868 789 694 598 502 411 329 257 205 173
1670.0 145 119 101 87 77 68 64 61 56 49
1710.0 40 43 42 33 32 34 33 31 31 29
1750.0 25 20 18 17 15 17 12 9 11 8
1790.0 6 7 7 6 4 2 2 6 9 6
1830.0 1 3 3 5 7 4 1 0 1 4
1870.0 3 3 2 7 8 6 5 4 1 2
1910.0 4 6 4 4 1 0 0 0 0 0
1950.0 0 0 0 7 10 7 4 6 6 10
1990.0 13 13 15 18 16 16 15 11 15 20
2030.0 14 12 17 16 15 16 18 15 14 18
2070.0 21 23 20 22 27 26 23 23 22 22
2110.0 18 16 15 18 20 22 24 18 16 22
2150.0 26 22 24 28 26 21 21 28 30 26
2190.0 24 22 21 24 26 25 23 26 28 29
2230.0 32 33 33 33 34 37 36 37 38 35
2270.0 37 40 36 34 37 39 39 40 36 34
2310.0 34 35 41 40 42 42 42 43 38 39
2350.0 39 41 42 45 50 49 41 35 40 42
2390.0 39 38 37 38 42 44 39 38 36 33
2430.0 33 34 35 33 36 33 29 30 34 34
2470.0 34 35 36 36 35 33 31 29 25 27
2510.0 30 36 43 43 39 40 40 39 40 40
2550.0 42 45 42 46 50 48 49 53 53 54
2590.0 56 56 61 62 58 58 64 66 64 65
2630.0 70 67 68 75 79 83 89 91 92 90
2670.0 89 89 89 92 90 89 95 106 115 123
2710.0 128 139 143 150 163 165 172 179 175 178
2750.0 177 179 182 183 182 184 193 199 214 223
2790.0 238 262 276 292 317 340 367 402 445 494
2830.0 568 664 779 920 1091 1295 1525 1777 2024 2261
2870.0 2511 2780 3021 3199 3367 3537 3635 3748 3917 4083
2910.0 4263 4470 4703 4944 5187 5412 5604 5815 6144 6648
2950.0 7281 8030 8836 9564 10000 9973 9582 8842 7711 6316
2990.0 4925 3699 2684 1891 1332 973 739 597 512 450
3030.0 401 369 348 335 324 314 311 310 306 314
3070.0 316 307 308 297 282 269 252 235 218 200
3110.0 194 185 179 180 176 174 170 156 150 146
3150.0 148 159 163 167 165 160 161 165 171 168
3190.0 159 155 156 159 157 160 162 157 148 136
3230.0 125 122 124 114 102 96 91 83 72 71
3270.0 76 75 69 69 73 79 85 94 107 123
3310.0 145 167 187 197 197 202 206 193 164 144
3350.0 126 102 90 82 75 76 75 74 71 67
3390.0 69 68 63 69 74 72 70 62 57 54
3430.0 50 51 48 46 40 41 46 45 47 46
3470.0 44 45 43 46 41 37 40 32 26 35
3510.0 44 35 29 33 22 25 31 32 35 28
3550.0 33 36 25 31 42 35 30 40 45 39
3590.0 35 28 31 41 45 42 34 39 41 34
3630.0 38 39 36 41 40 39 38 37 47 51
3670.0 53 58 53 46 44 40 38 41 37 41
3710.0 56 50 33 36 43 35 31 50 55 52
3750.0 55 44 48 59 58 48 44 38 35 42
3790.0 41 42 41 40 48 53 57 52 54 55
3830.0 47 52 58 63 50
##END=
