##TITLE=Ethylcyclopropane
##JCAMP-DX=4.24
##DATA TYPE=INFRARED SPECTRUM
##ORIGIN=NIST Mass Spectrometry Data Center
##OWNER=NIST Standard Reference Data Program
Collection (C) 2009 copyright by the U.S. Secretary of Commerce
on behalf of the United States of America. All rights reserved.
##CAS REGISTRY NO=1191-96-4
##MOLFORM=C 5 H 10
##$NIST SOURCE=MSDC-IR
##SPECTROMETER/DATA SYSTEM=HP-GC/MS/IRD
##STATE=gas
##XUNITS=1/CM
##YUNITS=ABSORBANCE
##XFACTOR=1.0
##YFACTOR=0.000003000
##DELTAX=4.0
##FIRSTX=550.0
##LASTX=3846.0
##FIRSTY=0.000159
##MAXX=3846
##MINX=550
##MAXY=0.03
##MINY=0
##NPOINTS=825
##XYDATA=(X++(Y..Y))
550.0 53 51 47 93 102 100 124 93 98 131
590.0 122 100 67 67 100 90 71 89 90 65
630.0 36 19 5 4 21 88 129 78 55 84
670.0 92 61 68 83 65 88 138 150 159 185
710.0 229 293 356 412 483 566 626 664 715 708
750.0 632 643 658 573 475 413 381 376 399 448
790.0 525 623 751 891 1039 1154 1155 1083 1075 1092
830.0 1068 979 844 715 614 538 505 506 520 557
870.0 602 657 684 691 705 742 820 895 940 955
910.0 950 943 943 929 905 873 788 646 524 418
950.0 349 307 286 283 303 352 405 483 596 736
990.0 930 1196 1562 1970 2276 2325 2387 2508 2301 2243
1030.0 2202 1828 1380 1021 793 639 534 441 376 331
1070.0 295 273 258 257 257 244 232 234 223 194
1110.0 188 183 177 176 162 161 166 161 152 163
1150.0 171 172 197 212 210 217 229 237 239 242
1190.0 234 223 220 227 235 234 228 217 215 220
1230.0 206 199 201 201 213 224 222 241 263 273
1270.0 302 322 325 353 425 516 640 776 866 866
1310.0 882 895 866 884 840 683 510 404 347 317
1350.0 320 360 400 441 496 550 594 629 641 664
1390.0 701 703 655 602 570 557 582 630 694 768
1430.0 841 938 1091 1246 1380 1487 1562 1624 1607 1541
1470.0 1465 1325 1195 1040 869 726 597 487 403 345
1510.0 271 219 200 178 148 136 143 153 147 120
1550.0 103 127 157 132 112 112 121 122 105 92
1590.0 95 105 113 116 111 108 117 137 146 140
1630.0 142 153 150 149 153 171 174 142 129 127
1670.0 122 118 119 128 125 101 120 147 131 104
1710.0 103 124 127 110 112 122 129 141 146 147
1750.0 152 162 170 179 187 204 211 192 175 171
1790.0 175 165 158 153 151 146 145 145 144 147
1830.0 133 126 128 125 126 124 122 130 126 120
1870.0 123 119 120 118 119 133 149 159 168 189
1910.0 206 219 232 240 239 231 221 208 191 174
1950.0 156 138 130 125 115 101 89 88 86 82
1990.0 84 83 86 86 82 93 103 114 131 149
2030.0 171 185 202 223 238 239 229 228 228 222
2070.0 216 209 192 169 152 142 138 130 112 95
2110.0 80 85 87 75 74 77 84 83 75 67
2150.0 68 68 61 59 57 55 50 49 59 59
2190.0 54 63 73 73 78 83 78 66 60 66
2230.0 56 51 57 57 58 58 53 58 58 53
2270.0 56 58 48 45 43 39 38 34 29 29
2310.0 28 28 35 34 29 39 43 41 46 43
2350.0 38 47 53 56 54 45 35 24 32 42
2390.0 48 61 57 48 56 53 42 40 40 52
2430.0 53 44 51 60 65 74 81 82 84 85
2470.0 83 82 82 74 62 58 50 38 29 25
2510.0 17 12 10 4 3 6 5 12 28 31
2550.0 20 12 30 41 33 37 41 46 36 21
2590.0 32 38 46 55 52 60 67 59 58 66
2630.0 67 72 66 55 56 64 73 58 56 68
2670.0 60 49 56 53 49 54 52 49 62 79
2710.0 84 76 89 114 126 147 172 191 210 229
2750.0 231 223 222 219 231 235 221 229 235 227
2790.0 231 248 270 308 348 393 452 524 622 753
2830.0 896 1046 1226 1443 1712 2029 2363 2699 3059 3458
2870.0 3925 4317 4513 4634 4839 5058 5308 5532 5660 5750
2910.0 5901 6130 6372 6681 7066 7373 7496 7516 7639 7938
2950.0 8368 8988 9507 9897 10000 9539 9367 9416 9322 8928
2990.0 8332 7831 7510 7378 7302 6894 6374 6059 5627 5033
3030.0 4363 3686 3099 2659 2368 2218 2214 2371 2676 3060
3070.0 3443 3690 3918 4457 4256 3605 3457 3116 2574 2031
3110.0 1571 1219 936 715 564 458 365 298 270 249
3150.0 232 226 225 222 210 190 179 179 171 165
3190.0 158 145 125 122 105 86 87 79 74 67
3230.0 55 39 30 27 28 33 36 25 22 32
3270.0 36 42 31 22 23 39 40 39 38 16
3310.0 3 4 18 9 19 26 17 13 7 9
3350.0 8 18 21 25 21 11 17 12 12 15
3390.0 12 16 22 37 35 22 24 32 40 33
3430.0 19 27 39 42 27 20 39 43 28 24
3470.0 26 30 28 22 6 0 16 31 35 23
3510.0 20 36 30 17 31 25 6 27 26 15
3550.0 10 14 17 7 0 4 15 10 9 22
3590.0 38 38 32 27 28 6 4 19 10 9
3630.0 19 9 11 30 30 43 32 29 28 32
3670.0 53 52 35 28 36 35 19 11 21 40
3710.0 52 43 39 56 52 34 49 52 51 61
3750.0 72 60 36 23 35 43 31 43 44 37
3790.0 49 61 67 74 65 70 85 69 69 64
3830.0 64 80 85 70 71
##END=
