##TITLE=2-Pentyne
##JCAMP-DX=4.24
##DATA TYPE=INFRARED SPECTRUM
##ORIGIN=NIST Mass Spectrometry Data Center
##OWNER=NIST Standard Reference Data Program
Collection (C) 2009 copyright by the U.S. Secretary of Commerce
on behalf of the United States of America. All rights reserved.
##CAS REGISTRY NO=627-21-4
##MOLFORM=C 5 H 8
##$NIST SOURCE=MSDC-IR
##SPECTROMETER/DATA SYSTEM=HP-GC/MS/IRD
##STATE=gas
##XUNITS=1/CM
##YUNITS=ABSORBANCE
##XFACTOR=1.0
##YFACTOR=0.000003300
##DELTAX=4.0
##FIRSTX=550.0
##LASTX=3846.0
##FIRSTY=0.001637
##MAXX=3846
##MINX=550
##MAXY=0.033
##MINY=0
##NPOINTS=825
##XYDATA=(X++(Y..Y))
550.0 496 362 316 353 382 383 370 358 338 325
590.0 348 356 329 342 360 320 288 317 311 289
630.0 250 236 222 171 142 111 119 130 108 111
670.0 99 86 68 54 73 63 55 56 35 22
710.0 25 26 49 73 69 70 79 78 83 89
750.0 82 82 93 92 87 94 93 111 131 119
790.0 118 110 116 131 145 125 95 76 34 30
830.0 53 45 31 31 42 44 23 22 28 30
870.0 27 24 23 13 5 8 13 22 30 31
910.0 31 29 31 38 42 49 60 71 67 50
950.0 51 45 47 54 32 9 4 10 18 26
990.0 29 37 56 58 48 64 79 80 94 118
1030.0 139 158 172 210 270 321 362 386 385 407
1070.0 437 426 380 327 297 263 218 174 139 111
1110.0 99 89 77 82 100 119 126 141 146 149
1150.0 130 117 129 136 134 144 163 164 162 175
1190.0 177 161 154 155 158 167 155 150 160 168
1230.0 167 171 185 191 206 211 205 216 237 258
1270.0 265 288 336 377 462 593 754 971 1274 1638
1310.0 1985 2307 2565 2625 2490 2338 2199 1885 1453 1093
1350.0 839 694 678 746 798 867 972 967 860 851
1390.0 927 937 853 817 870 889 934 1122 1229 1173
1430.0 1221 1341 1331 1308 1409 1511 1596 1682 1625 1433
1470.0 1309 1277 1211 1101 1011 928 874 844 813 753
1510.0 657 593 554 508 478 458 429 428 444 401
1550.0 353 340 336 305 278 277 279 280 265 245
1590.0 225 214 208 205 206 196 198 194 169 158
1630.0 157 155 142 132 122 119 116 89 87 92
1670.0 82 85 81 78 78 65 73 78 63 49
1710.0 44 54 67 56 41 46 53 47 40 41
1750.0 45 42 37 38 45 49 44 34 32 30
1790.0 23 23 25 32 34 32 36 38 43 47
1830.0 46 47 54 63 64 51 49 57 54 50
1870.0 50 49 54 54 45 42 45 41 30 26
1910.0 28 29 29 24 19 19 23 22 20 18
1950.0 18 20 20 17 24 26 15 8 4 8
1990.0 18 15 15 19 19 17 17 19 30 37
2030.0 48 73 87 92 102 112 118 110 102 97
2070.0 75 49 47 46 30 28 31 26 29 31
2110.0 23 17 17 18 25 20 18 25 28 25
2150.0 17 16 19 25 23 17 18 21 17 17
2190.0 17 19 22 19 14 7 10 24 32 32
2230.0 42 37 30 33 29 22 14 19 18 11
2270.0 11 12 12 6 3 1 0 10 20 27
2310.0 30 30 37 44 54 57 50 50 56 48
2350.0 34 33 34 36 40 39 33 34 46 50
2390.0 48 47 48 53 56 54 57 59 65 70
2430.0 72 70 56 53 58 69 70 49 43 53
2470.0 54 52 49 45 43 45 58 62 61 60
2510.0 56 55 54 54 61 58 51 43 35 31
2550.0 19 15 22 15 4 17 32 18 13 32
2590.0 43 45 42 37 39 46 47 59 69 65
2630.0 69 74 66 70 60 41 41 34 27 14
2670.0 14 15 11 14 22 26 40 64 68 74
2710.0 81 91 115 140 177 223 271 316 344 360
2750.0 365 370 358 324 279 242 229 230 226 222
2790.0 239 254 269 304 344 391 454 523 598 692
2830.0 805 939 1080 1255 1489 1780 2111 2440 2807 3231
2870.0 3620 3954 4348 4650 4646 4546 4600 4745 4854 4939
2910.0 5137 5600 6439 7490 8507 9012 9216 9650 10000 9711
2950.0 8661 7822 7389 7054 7069 7376 7783 7580 7268 7641
2990.0 7463 6476 5289 4447 3909 3254 2867 2469 2141 1870
3030.0 1667 1543 1249 1068 910 798 721 697 676 564
3070.0 513 461 428 398 407 411 385 372 342 339
3110.0 339 343 341 340 338 323 315 309 299 264
3150.0 224 204 184 172 152 114 103 94 79 78
3190.0 68 56 56 70 78 71 72 71 72 80
3230.0 72 65 69 61 46 36 35 32 34 39
3270.0 47 46 28 33 34 33 34 30 35 36
3310.0 43 59 56 35 38 63 65 60 55 46
3350.0 44 54 59 43 35 53 63 45 39 38
3390.0 26 29 36 37 24 10 14 27 42 45
3430.0 33 31 41 53 76 85 81 82 79 71
3470.0 68 75 74 69 53 35 24 27 27 22
3510.0 25 10 4 15 24 36 39 39 36 30
3550.0 22 30 40 35 34 40 49 52 46 37
3590.0 41 43 44 43 43 46 56 59 49 62
3630.0 71 65 53 42 64 79 68 67 59 53
3670.0 61 63 67 70 82 67 56 45 38 56
3710.0 68 59 49 51 62 62 53 53 63 69
3750.0 69 66 53 38 38 44 43 60 76 72
3790.0 52 55 72 59 52 60 62 63 67 63
3830.0 63 71 62 57 63
##END=
