##TITLE=3-Chloro-3-methyl-1-butene
##JCAMP-DX=4.24
##DATA TYPE=INFRARED SPECTRUM
##ORIGIN=NIST Mass Spectrometry Data Center
##OWNER=NIST Standard Reference Data Program
Collection (C) 2009 copyright by the U.S. Secretary of Commerce
on behalf of the United States of America. All rights reserved.
##CAS REGISTRY NO=2190-48-9
##MOLFORM=C 5 H 9 Cl
##$NIST SOURCE=MSDC-IR
##SPECTROMETER/DATA SYSTEM=HP-GC/MS/IRD
##STATE=gas
##XUNITS=1/CM
##YUNITS=ABSORBANCE
##XFACTOR=1.0
##YFACTOR=0.000000600
##DELTAX=4.0
##FIRSTX=550.0
##LASTX=3846.0
##FIRSTY=0.000416
##MAXX=3846
##MINX=550
##MAXY=0.006
##MINY=0
##NPOINTS=825
##XYDATA=(X++(Y..Y))
550.0 693 526 600 810 719 515 345 279 152 227
590.0 223 179 188 106 13 191 323 199 250 378
630.0 292 345 743 1029 1265 1468 1723 2025 2346 2821
670.0 3562 4493 5342 5885 6100 5989 5524 4818 4118 3405
710.0 2779 2419 2313 2261 2239 2295 2352 2404 2294 2099
750.0 2066 2029 1775 1522 1367 1210 1097 1049 1029 1017
790.0 1026 1124 1215 1325 1479 1704 1910 2030 2312 2760
830.0 3194 3515 3720 3759 3505 3164 2792 2521 2305 2057
870.0 2018 2146 2305 2389 2687 3451 3412 2854 3055 3173
910.0 2719 2348 2172 1971 1750 1503 1282 1170 967 795
950.0 807 789 798 852 917 977 1077 1197 1320 1547
990.0 1570 1287 1231 1388 1536 1687 1750 1816 1818 1606
1030.0 1343 1075 846 592 501 498 509 500 355 298
1070.0 336 347 304 326 393 424 416 470 505 494
1110.0 513 471 448 373 362 409 411 399 375 334
1150.0 366 437 387 425 508 504 492 553 546 528
1190.0 572 611 658 764 931 1142 1391 1673 1924 2154
1230.0 2464 2983 3794 4856 5807 6460 6862 6877 6476 5528
1270.0 4275 3159 2250 1555 1148 920 794 733 696 692
1310.0 661 628 573 575 618 639 664 713 848 932
1350.0 1049 1316 1561 1815 2158 2533 2905 3216 3462 3613
1390.0 3536 3267 2879 2493 2208 2011 1939 2012 2147 2293
1430.0 2457 2736 3098 3417 3679 3775 3784 3692 3527 3291
1470.0 2986 2593 2244 1991 1746 1605 1479 1291 1142 1133
1510.0 1106 1086 1105 1104 1111 1109 1115 1125 1107 1072
1550.0 1066 1098 1159 1153 1154 1226 1288 1331 1387 1471
1590.0 1509 1478 1489 1505 1424 1326 1258 1194 1097 1003
1630.0 977 1003 1029 1089 1281 1604 1923 2199 2443 2504
1670.0 2396 2239 1881 1413 923 559 403 308 193 112
1710.0 63 64 84 33 0 27 69 58 14 37
1750.0 52 35 56 128 181 226 246 233 294 327
1790.0 328 377 426 382 304 299 300 273 287 314
1830.0 322 282 225 216 225 184 128 90 108 118
1870.0 133 165 123 49 53 85 75 89 95 66
1910.0 57 42 37 45 64 86 107 105 72 76
1950.0 119 130 111 110 118 127 131 95 54 10
1990.0 67 124 89 75 90 93 92 73 75 86
2030.0 115 117 60 54 68 71 88 113 128 141
2070.0 129 110 100 92 111 142 136 147 167 150
2110.0 122 129 159 190 167 145 152 147 159 186
2150.0 206 161 128 139 141 188 214 190 166 130
2190.0 100 117 145 132 149 136 146 151 128 152
2230.0 126 116 129 116 118 132 137 104 101 109
2270.0 94 97 138 141 123 135 143 146 146 128
2310.0 79 78 129 154 186 225 212 206 205 213
2350.0 214 219 266 286 277 231 194 193 222 237
2390.0 209 197 177 165 177 195 213 192 172 200
2430.0 227 218 239 235 244 256 285 269 188 213
2470.0 200 176 234 261 209 190 230 206 167 188
2510.0 214 169 164 177 137 146 89 84 156 137
2550.0 175 197 160 159 75 14 122 178 131 120
2590.0 103 57 107 166 157 174 151 153 238 250
2630.0 237 214 194 188 237 274 241 231 230 212
2670.0 188 282 320 250 278 347 320 314 449 517
2710.0 399 376 438 500 562 568 571 639 752 813
2750.0 842 796 690 605 534 526 568 527 536 577
2790.0 568 642 754 777 713 700 797 924 1030 1068
2830.0 1110 1242 1520 1783 2021 2317 2752 3307 3844 4321
2870.0 4630 4837 5027 5131 5251 5370 5495 5738 6081 6445
2910.0 7011 7774 8614 9359 9824 10000 9952 9535 9066 8659
2950.0 8176 8003 8036 8104 8374 8821 9059 9039 9003 8958
2990.0 8638 8094 7507 6794 6199 5688 5246 4803 4506 4337
3030.0 4235 4060 3809 3633 3454 3278 3091 2880 2705 2515
3070.0 2418 2467 2412 2275 2184 2118 2019 1933 1835 1660
3110.0 1470 1298 1098 917 760 639 605 560 528 473
3150.0 409 421 389 296 292 297 223 158 133 141
3190.0 171 185 149 189 151 121 192 194 194 201
3230.0 156 161 239 229 177 112 52 73 148 179
3270.0 115 86 135 204 232 172 94 88 119 119
3310.0 75 68 99 87 31 102 170 105 82 102
3350.0 131 192 191 145 86 86 170 155 164 155
3390.0 125 152 121 165 228 144 156 160 135 133
3430.0 162 139 149 194 136 193 183 132 108 40
3470.0 26 166 205 155 192 138 56 88 251 243
3510.0 110 98 140 243 224 103 104 101 189 302
3550.0 252 196 209 194 143 136 150 212 191 164
3590.0 175 85 156 216 208 167 72 116 188 190
3630.0 165 144 88 105 211 254 223 154 151 202
3670.0 256 207 258 337 236 187 228 259 308 240
3710.0 169 136 129 174 268 231 224 318 289 192
3750.0 153 241 240 190 244 272 205 230 289 261
3790.0 176 165 261 308 246 195 289 401 388 256
3830.0 173 201 224 179 178
##END=
