##TITLE=2-Methyl-4-pentadiene
##JCAMP-DX=4.24
##DATA TYPE=INFRARED SPECTRUM
##ORIGIN=NIST Mass Spectrometry Data Center
##OWNER=NIST Standard Reference Data Program
Collection (C) 2009 copyright by the U.S. Secretary of Commerce
on behalf of the United States of America. All rights reserved.
##CAS REGISTRY NO=763-30-4
##MOLFORM=C 6 H 10
##$NIST SOURCE=MSDC-IR
##SPECTROMETER/DATA SYSTEM=HP-GC/MS/IRD
##STATE=gas
##XUNITS=1/CM
##YUNITS=ABSORBANCE
##XFACTOR=1.0
##YFACTOR=0.000001800
##DELTAX=4.0
##FIRSTX=550.0
##LASTX=3846.0
##FIRSTY=0.000500
##MAXX=3846
##MINX=550
##MAXY=0.018
##MINY=0
##NPOINTS=825
##XYDATA=(X++(Y..Y))
550.0 278 298 264 185 136 143 153 157 220 311
590.0 366 478 584 645 746 858 933 945 972 1011
630.0 976 922 785 612 492 379 287 246 233 219
670.0 198 175 153 185 220 162 111 135 123 94
710.0 76 81 66 49 80 100 79 39 40 45
750.0 54 70 27 19 75 72 57 86 135 172
790.0 189 202 230 289 347 427 518 583 605 660
830.0 729 749 803 881 958 1080 1282 1607 2056 2639
870.0 3384 4278 5280 6360 7583 9174 10000 9834 9848 9830
910.0 9423 8745 7961 7128 6244 5195 4192 3376 2791 2344
950.0 1979 1761 1674 1658 1742 1893 2113 2414 2714 2922
990.0 2996 3014 3029 2939 2652 2303 1953 1625 1349 1114
1030.0 922 769 662 572 498 455 436 426 408 386
1070.0 362 357 361 351 341 344 373 400 382 400
1110.0 429 401 349 302 264 211 175 142 105 106
1150.0 105 76 72 72 60 77 94 88 108 157
1190.0 190 231 296 384 449 525 637 691 730 736
1230.0 713 693 636 565 559 609 695 820 890 887
1270.0 896 876 851 790 671 560 488 457 444 420
1310.0 413 426 428 432 446 449 479 502 520 576
1350.0 661 778 918 1114 1362 1588 1750 1864 1961 2018
1390.0 1992 1835 1663 1585 1587 1671 1833 2052 2315 2549
1430.0 2727 2920 3090 3157 3140 2987 2774 2544 2313 2061
1470.0 1791 1501 1212 994 813 677 587 504 453 419
1510.0 380 359 355 362 357 356 361 378 383 368
1550.0 370 376 396 403 398 430 477 519 558 596
1590.0 648 736 859 1006 1213 1514 1889 2378 2930 3489
1630.0 3977 4336 4580 4686 4598 4295 3754 3139 2597 2113
1670.0 1651 1248 932 703 531 394 335 277 221 189
1710.0 156 151 142 123 99 87 100 105 100 106
1750.0 119 133 156 196 233 286 363 437 489 528
1790.0 554 585 604 582 572 564 563 593 651 700
1830.0 709 683 660 639 583 484 359 256 197 149
1870.0 111 99 86 67 64 59 69 68 57 60
1910.0 54 32 24 24 23 27 25 20 16 24
1950.0 35 50 62 55 61 72 77 81 84 79
1990.0 63 48 46 38 23 25 30 24 20 27
2030.0 23 14 0 2 12 12 14 14 18 13
2070.0 2 2 7 22 41 44 44 47 50 45
2110.0 35 31 30 33 29 13 16 10 7 14
2150.0 15 21 30 24 11 5 10 29 39 35
2190.0 38 47 47 43 44 49 46 44 40 29
2230.0 37 36 35 37 24 21 26 32 41 48
2270.0 45 38 21 9 7 15 26 35 36 39
2310.0 26 23 24 22 29 33 44 46 43 42
2350.0 42 32 31 39 33 30 44 53 48 44
2390.0 46 32 33 56 59 54 61 52 51 50
2430.0 40 35 36 49 47 49 45 38 50 51
2470.0 37 57 78 85 70 58 58 52 58 46
2510.0 43 57 70 69 49 58 83 74 67 81
2550.0 91 79 72 77 82 73 57 59 60 56
2590.0 54 61 65 59 65 64 62 70 82 95
2630.0 90 88 91 109 120 117 127 113 100 93
2670.0 96 99 101 124 146 149 167 182 183 187
2710.0 209 232 232 237 274 306 310 320 327 330
2750.0 323 303 287 274 273 279 291 325 357 386
2790.0 428 484 550 617 712 857 996 1127 1262 1406
2830.0 1572 1742 1908 2039 2153 2284 2420 2567 2733 2916
2870.0 3140 3424 3721 4054 4449 4860 5266 5661 6001 6319
2910.0 6595 6787 6907 6912 6820 6713 6598 6413 6164 5892
2950.0 5572 5305 5289 5558 6037 6500 6786 7055 7158 7072
2990.0 6910 6396 5715 5111 4578 4107 3696 3313 2984 2684
3030.0 2400 2194 2091 2083 2181 2377 2713 3181 3811 4610
3070.0 5509 6277 6734 6951 6935 6578 5919 5050 3946 2865
3110.0 2042 1492 1142 913 763 670 585 517 460 401
3150.0 375 361 314 267 265 254 230 205 173 164
3190.0 151 139 123 97 90 107 119 115 99 86
3230.0 78 73 90 102 87 86 110 118 118 130
3270.0 113 95 120 139 139 131 118 98 96 103
3310.0 115 110 107 118 93 72 85 75 62 71
3350.0 84 109 105 86 72 88 73 54 58 58
3390.0 81 78 38 14 20 26 25 38 58 61
3430.0 60 52 51 67 66 71 78 65 62 77
3470.0 67 60 75 76 60 37 49 34 25 27
3510.0 29 27 27 36 37 38 31 17 35 45
3550.0 42 49 38 45 56 55 49 27 35 38
3590.0 31 53 52 43 35 34 26 27 56 44
3630.0 12 7 15 21 25 31 33 25 23 32
3670.0 33 50 74 64 58 52 41 37 31 44
3710.0 62 61 44 19 36 71 50 26 66 109
3750.0 73 43 74 64 52 49 34 39 52 53
3790.0 37 41 65 70 51 22 42 56 47 35
3830.0 5 2 23 35 54
##END=
