##TITLE=Trimethylene oxide
##JCAMP-DX=4.24
##DATA TYPE=INFRARED SPECTRUM
##ORIGIN=NIST Mass Spectrometry Data Center
##OWNER=NIST Standard Reference Data Program
Collection (C) 2009 copyright by the U.S. Secretary of Commerce
on behalf of the United States of America. All rights reserved.
##CAS REGISTRY NO=503-30-0
##MOLFORM=C 3 H 6 O
##$NIST SOURCE=MSDC-IR
##SPECTROMETER/DATA SYSTEM=HP-GC/MS/IRD
##STATE=gas
##XUNITS=1/CM
##YUNITS=ABSORBANCE
##XFACTOR=1.0
##YFACTOR=0.000000900
##DELTAX=4.0
##FIRSTX=550.0
##LASTX=3846.0
##FIRSTY=0.000235
##MAXX=3846
##MINX=550
##MAXY=0.009
##MINY=0
##NPOINTS=825
##XYDATA=(X++(Y..Y))
550.0 261 227 124 173 303 171 94 106 63 13
590.0 243 218 90 240 221 182 173 111 17 10
630.0 56 145 209 196 181 153 137 198 223 191
670.0 193 211 190 279 265 152 141 179 191 127
710.0 118 157 127 169 229 226 173 178 294 279
750.0 261 276 300 290 267 338 348 386 440 464
790.0 432 379 448 438 398 494 516 476 502 543
830.0 520 550 630 746 882 1038 1185 1387 1562 1624
870.0 1751 1944 2108 2270 2467 2622 2820 3044 3113 2970
910.0 2771 2625 2387 2112 1826 1577 1548 1597 1631 1806
950.0 2018 2303 2686 3233 3821 4287 4720 5037 5154 5229
990.0 5394 5451 5338 5123 4877 4643 4387 4053 3611 3219
1030.0 2685 2123 1667 1281 1177 1173 921 728 660 514
1070.0 425 352 262 249 386 433 431 398 338 390
1110.0 449 472 440 432 434 414 349 347 405 330
1150.0 224 173 202 192 76 8 5 9 26 24
1190.0 0 42 137 233 285 278 331 392 386 369
1230.0 333 339 373 367 334 318 301 242 128 105
1270.0 91 75 110 88 68 89 114 133 134 127
1310.0 106 76 75 91 115 144 149 145 138 110
1350.0 117 126 110 121 136 140 128 115 122 116
1390.0 128 119 142 178 166 182 222 240 244 282
1430.0 324 371 399 381 363 398 413 400 415 422
1470.0 407 383 363 353 330 310 281 259 234 179
1510.0 177 186 190 184 187 187 189 179 146 145
1550.0 153 134 91 121 170 170 165 179 190 190
1590.0 195 199 187 165 178 180 163 145 136 144
1630.0 162 145 134 141 128 95 93 136 137 135
1670.0 133 133 128 65 67 93 58 34 32 57
1710.0 107 87 43 61 49 40 46 42 49 54
1750.0 25 54 87 68 61 50 37 44 62 59
1790.0 47 45 69 84 104 114 114 124 132 150
1830.0 165 166 141 144 182 178 161 152 169 174
1870.0 168 178 182 195 203 190 162 189 223 195
1910.0 170 163 159 144 140 143 142 131 113 88
1950.0 74 98 100 85 100 113 110 87 91 122
1990.0 120 95 118 151 173 187 154 140 157 160
2030.0 163 161 148 114 100 124 140 132 120 108
2070.0 87 53 36 58 64 47 72 91 84 70
2110.0 41 56 78 101 85 77 101 93 80 106
2150.0 113 72 90 123 110 85 76 77 83 86
2190.0 76 74 84 76 68 60 51 51 54 76
2230.0 69 81 126 91 36 54 47 57 68 13
2270.0 15 40 21 36 71 76 92 96 84 69
2310.0 65 34 57 80 40 43 27 10 28 15
2350.0 6 33 37 8 4 12 45 55 66 67
2390.0 74 114 120 99 74 49 32 37 46 44
2430.0 41 50 93 104 67 65 80 81 87 91
2470.0 85 116 137 105 48 29 29 72 127 156
2510.0 163 116 65 51 94 86 54 112 122 89
2550.0 56 78 75 85 166 142 132 105 98 155
2590.0 135 111 161 177 179 188 178 178 215 217
2630.0 174 112 117 172 168 136 113 124 147 168
2670.0 193 190 159 171 181 163 181 184 165 188
2710.0 246 303 301 258 279 328 328 339 347 345
2750.0 380 402 372 364 397 371 406 465 485 537
2790.0 582 603 589 591 642 734 823 860 854 866
2830.0 1021 1190 1410 1734 2107 2617 3312 4105 4951 5735
2870.0 6235 6513 6703 7031 7463 7715 7768 7686 7830 8107
2910.0 8016 7607 6946 6255 6195 6623 8245 10000 7400 4679
2950.0 4634 5064 5538 5757 5815 5829 5738 5453 5031 4647
2990.0 4268 4021 4221 6318 6826 3658 2257 2201 2100 2057
3030.0 1940 1837 1639 1413 1204 1035 862 736 607 469
3070.0 449 470 415 321 384 438 319 263 315 320
3110.0 263 251 265 269 215 173 210 240 204 198
3150.0 233 233 234 251 192 159 175 141 137 123
3190.0 90 96 150 203 245 177 165 192 102 115
3230.0 133 91 145 162 130 180 208 206 118 82
3270.0 111 152 153 178 212 110 120 122 120 160
3310.0 135 104 165 201 184 152 60 107 188 107
3350.0 137 228 211 114 106 169 196 229 221 127
3390.0 123 155 132 109 100 133 92 43 52 59
3430.0 79 106 155 143 124 68 54 105 166 181
3470.0 181 168 65 20 21 113 144 96 147 122
3510.0 56 131 158 114 85 53 95 104 110 95
3550.0 77 76 49 83 88 105 84 42 71 124
3590.0 137 76 43 29 34 86 125 170 178 181
3630.0 178 106 48 24 53 83 74 98 58 5
3670.0 56 95 157 217 212 195 186 184 163 226
3710.0 259 216 91 27 34 64 132 163 208 174
3750.0 95 80 144 174 213 239 172 179 243 246
3790.0 157 136 212 215 203 276 240 158 192 144
3830.0 96 186 228 263 321
##END=
