##TITLE=2,3-Dibromopropene
##JCAMP-DX=4.24
##DATA TYPE=INFRARED SPECTRUM
##ORIGIN=EPA-IR VAPOR PHASE LIBRARY
##OWNER=SRD/NIST
Collection (C) 2009 copyright by the U.S. Secretary of Commerce
on behalf of the United States of America. All rights reserved.
##CAS REGISTRY NO=513-31-5
##MOLFORM=C 3 H 4 Br 2
##$NIST SOURCE=MSDC-IR
##STATE=gas
##XUNITS=1/CM
##YUNITS=ABSORBANCE
##XFACTOR=1.
##YFACTOR=0.001
##DELTAX=3.85796
##FIRSTX=501.5
##LASTX=4000.7
##FIRSTY=0.5811
##MAXX=4000.7
##MINX=501.534
##MAXY=0.03278
##MINY=0.00002929
##NPOINTS=908
##XYDATA=(X++(Y..Y))
501.534 0.5811 0.4364 0.5139 0.7081 0.8442 1.24 1.73 2.37 3.37 4.76
540.114 6.43 8.32 9.73 9.99 9.7 9.1 7.98 6.93 6.27 6.44
578.693 7.93 10.9 15.36 20.43 24.61 26.18 24.48 19.86 14.24 11.22
617.273 10.97 10.91 10.4 9.35 7.54 5.69 4.32 3.24 2.44 1.98
655.852 1.85 2.01 2.22 2.58 3.01 3.23 3.36 3.31 3.21 3.56
694.432 4.48 5.75 6.88 7.25 6.81 5.78 4.15 2.43 1.39 0.9099
733.011 0.6943 0.5724 0.4805 0.4594 0.4922 0.5255 0.5241 0.4934 0.4247 0.4561
771.591 0.5135 0.4861 0.4731 0.4822 0.5402 0.5434 0.4628 0.395 0.3156 0.2791
810.170 0.3049 0.3223 0.3497 0.3904 0.4568 0.5305 0.61 0.633 0.7201 0.8706
848.750 1.04 1.33 1.83 2.55 3.65 5.05 6.73 8.89 11.82 15.55
887.330 20.21 24.93 29.35 32.78 30.71 25.3 20.3 15.5 11.35 8.02
925.909 5.71 4.38 3.66 3.11 2.76 2.43 2.02 1.59 1.3 1.13
964.489 0.9797 0.8701 0.8077 0.7151 0.6215 0.6313 0.6088 0.554 0.5309 0.5383
1003.068 0.5171 0.4739 0.5209 0.5819 0.6861 0.7971 0.9528 1.12 1.27 1.49
1041.648 1.72 1.93 2.07 2.19 2.4 2.55 2.66 2.94 3.34 3.9
1080.227 4.8 6.02 7.78 10.38 14.05 18.3 21.33 22.53 21.52 17.81
1118.807 13.47 9.82 6.75 4.81 3.85 3.32 3.1 3.05 2.99 2.97
1157.387 3.05 3.23 3.57 4.17 5.17 6.85 9.69 14.25 19.89 23.95
1195.966 25.18 24.91 23.42 20.7 18.19 16.53 15.25 14.22 12.25 9.18
1234.546 6.65 5.02 4.01 3.38 2.87 2.39 1.78 1.17 0.8226 0.667
1273.125 0.6503 0.6821 0.6802 0.6533 0.6468 0.6847 0.721 0.6981 0.68 0.7049
1311.705 0.7473 0.8567 1.01 1.15 1.35 1.54 1.69 1.76 1.77 1.73
1350.284 1.62 1.45 1.37 1.46 1.73 2.22 2.95 3.91 4.9 5.61
1388.864 6.04 6.26 6.09 5.82 5.91 6.12 6.36 6.64 6.88 6.89
1427.443 6.54 6.18 5.74 4.89 4 3.18 2.41 1.81 1.32 0.9679
1466.023 0.7408 0.6244 0.5609 0.5016 0.472 0.4626 0.4583 0.448 0.4641 0.4876
1504.603 0.4754 0.5088 0.5676 0.575 0.5783 0.615 0.6411 0.6168 0.606 0.6249
1543.182 0.666 0.7099 0.737 0.7444 0.7473 0.8231 0.9045 0.9827 1.12 1.32
1581.762 1.58 1.99 2.63 3.52 4.76 6.37 8.29 10.54 12.77 14.56
1620.341 15.56 15.82 15.6 14.35 12.12 10 8.25 6.73 5.53 4.28
1658.921 3.24 2.43 1.81 1.32 0.9404 0.6631 0.4664 0.3769 0.3147 0.2532
1697.500 0.2112 0.1715 0.1644 0.1666 0.1529 0.123 0.1283 0.1419 0.1385 0.1311
1736.080 0.1329 0.1603 0.195 0.2506 0.3058 0.3324 0.3564 0.3797 0.423 0.5071
1774.659 0.6519 0.8809 1.17 1.52 1.94 2.35 2.56 2.57 2.48 2.21
1813.239 1.8 1.36 1.01 0.7363 0.5462 0.4335 0.3526 0.2923 0.2529 0.2111
1851.819 0.1758 0.1524 0.1379 0.1399 0.1391 0.1289 0.1076 0.09239 0.09765 0.1042
1890.398 0.1193 0.1181 0.1006 0.09149 0.08441 0.08982 0.1075 0.1328 0.1271 0.1102
1928.978 0.123 0.1233 0.1109 0.09906 0.09059 0.09145 0.08931 0.102 0.1171 0.1261
1967.557 0.1585 0.1844 0.1971 0.2013 0.1853 0.1956 0.2218 0.2092 0.1816 0.1902
2006.137 0.1972 0.172 0.1683 0.1681 0.1679 0.1702 0.1581 0.1381 0.1345 0.1534
2044.716 0.1532 0.153 0.166 0.1716 0.1658 0.1606 0.1472 0.1488 0.1448 0.153
2083.296 0.1648 0.1345 0.1355 0.1538 0.1521 0.1322 0.1202 0.1292 0.1217 0.1063
2121.875 0.1103 0.1075 0.09582 0.1052 0.1128 0.1158 0.136 0.1415 0.1432 0.1503
2160.455 0.1503 0.1549 0.1516 0.1495 0.1686 0.16 0.1596 0.1723 0.155 0.1709
2199.035 0.1773 0.1524 0.1569 0.15 0.1352 0.1263 0.1343 0.1541 0.1503 0.1562
2237.614 0.1616 0.1566 0.1409 0.1387 0.1531 0.1768 0.2024 0.1981 0.2014 0.2397
2276.194 0.295 0.321 0.3279 0.3516 0.3605 0.3701 0.3735 0.3836 0.383 0.3552
2314.773 0.3338 0.3027 0.2736 0.2692 0.2575 0.2426 0.2513 0.2356 0.2109 0.21
2353.353 0.213 0.226 0.203 0.164 0.1903 0.1984 0.1771 0.1625 0.1668 0.1802
2391.932 0.1902 0.2259 0.2496 0.2672 0.3079 0.3466 0.3501 0.3559 0.3649 0.3411
2430.512 0.3081 0.2909 0.2726 0.2198 0.1646 0.1515 0.151 0.1567 0.1497 0.1532
2469.092 0.1718 0.1576 0.1781 0.179 0.1525 0.1648 0.1743 0.1718 0.1651 0.1668
2507.671 0.1765 0.1564 0.1512 0.1612 0.1403 0.1442 0.183 0.1958 0.1775 0.1718
2546.251 0.1649 0.1617 0.1514 0.1431 0.1491 0.1437 0.1346 0.1322 0.1451 0.1495
2584.830 0.1576 0.1584 0.1294 0.1158 0.1149 0.1375 0.1478 0.1443 0.1779 0.1985
2623.410 0.2101 0.2181 0.2259 0.2139 0.2152 0.253 0.2829 0.2727 0.2472 0.2712
2661.989 0.2693 0.2375 0.2079 0.1929 0.192 0.2086 0.2015 0.1621 0.1643 0.1931
2700.569 0.2076 0.2017 0.1959 0.2199 0.2283 0.2055 0.1928 0.1949 0.2084 0.2178
2739.148 0.211 0.175 0.1736 0.1852 0.1827 0.1836 0.1968 0.1945 0.205 0.2279
2777.728 0.2439 0.2431 0.2075 0.2075 0.232 0.2465 0.2521 0.2722 0.2779 0.2862
2816.308 0.3146 0.3004 0.3197 0.3815 0.3964 0.4418 0.4738 0.4993 0.4991 0.4586
2854.887 0.4123 0.3417 0.3242 0.3343 0.3233 0.2635 0.2283 0.2226 0.2176 0.2235
2893.467 0.2076 0.2134 0.2507 0.2911 0.2668 0.2449 0.2868 0.3165 0.3447 0.3615
2932.046 0.3994 0.4638 0.5303 0.6355 0.8279 1.15 1.59 2.18 2.83 3.37
2970.626 3.69 3.8 3.61 3.16 2.66 2.12 1.65 1.31 1.07 0.9193
3009.205 0.8598 0.8888 0.9886 1.07 1.11 1.15 1.17 1.07 0.919 0.7671
3047.785 0.6496 0.5459 0.4176 0.3586 0.3452 0.3017 0.2347 0.2225 0.2646 0.2433
3086.364 0.2608 0.3182 0.3553 0.4527 0.5684 0.7482 0.8753 0.8885 0.8277 0.7032
3124.944 0.4833 0.3086 0.2399 0.1891 0.1658 0.1551 0.1641 0.1507 0.156 0.1526
3163.524 0.1366 0.1299 0.1493 0.1425 0.1308 0.1506 0.1441 0.1423 0.1702 0.1801
3202.103 0.1603 0.1712 0.1725 0.2002 0.2098 0.1953 0.1755 0.2039 0.2632 0.256
3240.683 0.2413 0.268 0.2656 0.2215 0.2542 0.2612 0.213 0.2008 0.2062 0.1803
3279.262 0.1734 0.1531 0.1146 0.1351 0.1902 0.2103 0.1469 0.1392 0.1534 0.1496
3317.842 0.1934 0.1575 0.1171 0.1546 0.2005 0.2181 0.2054 0.1417 0.1261 0.1657
3356.421 0.1758 0.1945 0.1839 0.156 0.1505 0.1454 0.1575 0.1553 0.1609 0.1722
3395.001 0.1839 0.179 0.1707 0.2081 0.1913 0.1712 0.1685 0.1638 0.1873 0.1992
3433.580 0.1612 0.1581 0.1595 0.133 0.1563 0.1748 0.1505 0.1934 0.2161 0.1516
3472.160 0.07916 0.04691 0.1107 0.1819 0.2001 0.1438 0.06497 0.08969 0.15 0.1499
3510.740 0.1442 0.1511 0.1556 0.1621 0.1937 0.181 0.1401 0.05403 0.02929 0.1388
3549.319 0.1713 0.1541 0.1402 0.1524 0.152 0.1541 0.176 0.1448 0.1638 0.2402
3587.899 0.2423 0.1773 0.1326 0.1615 0.2063 0.1769 0.1476 0.1746 0.1639 0.1663
3626.478 0.2303 0.2353 0.1636 0.1531 0.17 0.1753 0.1712 0.1296 0.1572 0.2061
3665.058 0.1996 0.2042 0.2178 0.1731 0.1663 0.219 0.192 0.1554 0.2072 0.2086
3703.637 0.1427 0.1572 0.1601 0.1152 0.1493 0.2207 0.2108 0.1657 0.1663 0.199
3742.217 0.1558 0.09817 0.1196 0.114 0.1486 0.1664 0.1094 0.1433 0.2151 0.2104
3780.797 0.1689 0.1028 0.1102 0.1824 0.2011 0.1468 0.1418 0.1493 0.1148 0.1272
3819.376 0.1974 0.2013 0.1908 0.2577 0.2648 0.3106 0.2911 0.2025 0.1614 0.1418
3857.956 0.2031 0.2129 0.1865 0.1764 0.2201 0.3019 0.3003 0.2715 0.2554 0.2359
3896.535 0.2418 0.2558 0.2561 0.204 0.1804 0.2117 0.1987 0.1717 0.2014 0.2543
3935.115 0.2437 0.2381 0.236 0.1867 0.181 0.202 0.1619 0.1647 0.2449 0.2657
3973.694 0.2156 0.1772 0.1756 0.2188 0.2339 0.1818 0.1476 0.1622
##END=
