##TITLE=2-Hexyne
##JCAMP-DX=4.24
##DATA TYPE=INFRARED SPECTRUM
##ORIGIN=NIST Mass Spectrometry Data Center
##OWNER=NIST Standard Reference Data Program
Collection (C) 2009 copyright by the U.S. Secretary of Commerce
on behalf of the United States of America. All rights reserved.
##CAS REGISTRY NO=764-35-2
##MOLFORM=C 6 H 10
##$NIST SOURCE=MSDC-IR
##SPECTROMETER/DATA SYSTEM=HP-GC/MS/IRD
##STATE=gas
##XUNITS=1/CM
##YUNITS=ABSORBANCE
##XFACTOR=1.0
##YFACTOR=0.000004100
##DELTAX=4.0
##FIRSTX=550.0
##LASTX=3846.0
##FIRSTY=0.000529
##MAXX=3846
##MINX=550
##MAXY=0.041
##MINY=0
##NPOINTS=825
##XYDATA=(X++(Y..Y))
550.0 129 132 127 151 198 215 212 193 184 185
590.0 159 142 125 108 100 79 76 88 78 85
630.0 76 73 89 90 73 31 0 16 42 45
670.0 58 70 71 65 70 76 76 71 63 66
710.0 68 58 51 73 88 89 90 88 95 98
750.0 100 113 113 109 110 103 100 99 104 116
790.0 119 151 191 201 214 207 199 194 166 138
830.0 116 97 96 112 120 122 133 135 143 169
870.0 183 181 187 205 211 206 197 171 147 130
910.0 119 105 91 79 65 63 67 64 63 66
950.0 62 53 48 48 51 51 47 52 65 64
990.0 58 64 70 83 93 104 127 157 187 198
1030.0 192 191 197 185 165 155 158 164 167 170
1070.0 179 194 189 179 171 156 152 142 118 94
1110.0 88 83 74 62 63 71 71 73 67 60
1150.0 64 65 58 56 58 66 74 76 76 78
1190.0 82 79 79 92 105 123 153 171 174 182
1230.0 197 201 195 205 212 207 226 258 304 388
1270.0 485 557 575 572 575 538 445 379 372 400
1310.0 452 529 650 806 978 1136 1219 1200 1145 1098
1350.0 999 820 692 675 709 790 920 975 936 910
1390.0 915 865 730 634 615 597 617 730 808 825
1430.0 907 1009 1056 1122 1234 1310 1312 1328 1346 1284
1470.0 1172 1056 961 856 756 694 649 603 547 487
1510.0 444 407 362 335 333 317 302 326 327 282
1550.0 255 244 231 218 215 211 209 207 197 183
1590.0 175 161 145 137 130 127 126 124 120 112
1630.0 97 92 89 84 87 85 82 81 76 74
1670.0 75 72 65 59 61 61 59 56 54 49
1710.0 45 46 46 43 44 49 54 46 39 42
1750.0 36 32 33 37 34 30 31 25 22 19
1790.0 20 29 25 24 31 29 27 31 30 30
1830.0 33 31 26 23 22 26 27 24 21 17
1870.0 16 15 20 20 16 15 15 13 12 14
1910.0 15 15 16 18 21 23 22 22 24 28
1950.0 25 19 21 24 21 15 11 16 16 12
1990.0 9 4 5 7 13 16 13 18 24 21
2030.0 25 35 47 58 63 65 65 65 67 60
2070.0 42 30 23 21 19 15 12 18 16 10
2110.0 14 15 15 19 22 23 19 15 15 14
2150.0 22 29 24 23 28 28 25 24 20 16
2190.0 17 19 19 14 11 13 20 19 13 15
2230.0 22 15 14 22 20 15 16 10 3 5
2270.0 5 2 3 8 7 7 8 7 10 13
2310.0 10 7 12 14 14 17 22 21 19 19
2350.0 16 13 15 19 26 27 24 26 28 30
2390.0 30 29 34 37 41 39 36 37 44 49
2430.0 45 45 43 45 51 49 49 46 44 41
2470.0 45 47 38 36 39 43 39 30 34 42
2510.0 43 46 49 47 50 51 53 49 39 37
2550.0 43 49 47 43 43 49 46 40 39 42
2590.0 47 44 46 49 46 44 40 44 51 52
2630.0 50 47 51 58 66 72 82 94 98 100
2670.0 102 99 94 95 101 98 95 93 95 104
2710.0 116 131 138 141 158 183 210 242 277 295
2750.0 305 309 297 269 241 236 236 239 254 263
2790.0 272 288 306 328 360 398 440 487 552 638
2830.0 741 878 1064 1293 1526 1758 2027 2381 2804 3254
2870.0 3692 4057 4322 4405 4343 4238 4102 3995 4026 4263
2910.0 4716 5369 6176 7140 8230 9038 9480 9799 10000 9698
2950.0 8724 7861 7402 7323 7663 7684 7221 6715 6175 5451
2990.0 4357 3361 2640 2217 1899 1516 1284 1089 990 915
3030.0 877 869 756 691 634 601 567 550 546 493
3070.0 464 431 417 401 387 374 329 293 257 238
3110.0 220 208 194 175 163 161 159 154 149 133
3150.0 120 119 121 122 115 113 115 112 102 97
3190.0 105 105 98 88 80 72 69 66 60 58
3230.0 50 51 41 44 51 39 32 39 47 41
3270.0 32 29 45 49 41 43 42 49 54 52
3310.0 59 64 61 55 52 50 47 56 51 49
3350.0 62 60 53 48 45 47 43 31 23 29
3390.0 34 25 22 31 35 34 33 32 39 41
3430.0 35 39 42 41 48 57 63 57 51 43
3470.0 45 39 27 30 24 15 14 26 31 23
3510.0 21 21 18 23 25 29 29 18 8 2
3550.0 7 15 10 18 28 19 9 13 19 16
3590.0 22 28 24 23 21 17 18 25 35 34
3630.0 30 20 25 27 32 34 22 30 32 26
3670.0 25 22 25 30 35 30 22 22 30 39
3710.0 37 21 16 25 37 37 39 45 38 38
3750.0 45 42 35 31 28 28 36 42 36 32
3790.0 31 30 33 33 35 37 33 33 32 34
3830.0 40 36 31 29 26
##END=
