##TITLE=2-Propanethiol
##JCAMP-DX=4.24
##DATA TYPE=INFRARED SPECTRUM
##ORIGIN=NIST Mass Spectrometry Data Center
##OWNER=NIST Standard Reference Data Program
Collection (C) 2009 copyright by the U.S. Secretary of Commerce
on behalf of the United States of America. All rights reserved.
##CAS REGISTRY NO=75-33-2
##MOLFORM=C 3 H 8 S
##$NIST SOURCE=MSDC-IR
##SPECTROMETER/DATA SYSTEM=HP-GC/MS/IRD
##STATE=gas
##XUNITS=1/CM
##YUNITS=ABSORBANCE
##XFACTOR=1.0
##YFACTOR=0.000000800
##DELTAX=4.0
##FIRSTX=550.0
##LASTX=3846.0
##FIRSTY=0.000393
##MAXX=3846
##MINX=550
##MAXY=0.008
##MINY=0
##NPOINTS=825
##XYDATA=(X++(Y..Y))
550.0 491 434 225 340 441 361 164 211 365 391
590.0 384 369 335 312 456 537 493 616 669 624
630.0 591 511 452 448 427 435 334 289 254 201
670.0 200 194 244 228 268 306 251 258 220 121
710.0 104 177 181 192 152 113 187 190 230 311
750.0 282 203 177 156 160 186 182 204 243 209
790.0 226 307 322 229 217 141 9 45 135 183
830.0 206 177 183 204 184 243 370 472 499 447
870.0 418 476 492 463 513 490 419 391 301 273
910.0 341 326 337 344 255 211 220 323 420 305
950.0 189 209 211 191 167 206 255 222 169 180
990.0 109 61 111 139 166 142 148 154 136 207
1030.0 211 278 449 461 370 325 401 548 644 720
1070.0 919 1025 1019 1065 1150 1101 986 873 770 717
1110.0 595 489 506 592 725 794 853 981 1060 1062
1150.0 1041 1129 1198 1187 1158 1155 1134 972 860 777
1190.0 733 683 645 659 739 843 849 1016 1251 1460
1230.0 1708 1955 2163 2362 2617 2722 2686 2714 2688 2511
1270.0 2276 2004 1733 1497 1258 1027 830 683 598 541
1310.0 485 444 428 457 463 435 437 455 513 638
1350.0 772 914 1082 1252 1293 1252 1324 1603 1770 1859
1390.0 1732 1313 1062 922 800 731 706 715 815 951
1430.0 1091 1213 1336 1427 1503 1699 1912 1851 1681 1701
1470.0 1625 1331 1205 1130 977 820 696 593 513 438
1510.0 334 280 277 224 164 167 177 185 189 143
1550.0 119 123 143 131 122 142 127 143 136 137
1590.0 128 87 95 90 93 135 146 115 98 113
1630.0 124 144 163 141 124 125 164 187 176 163
1670.0 152 167 207 221 189 238 308 282 234 219
1710.0 211 213 245 232 226 238 209 209 218 216
1750.0 187 146 163 211 198 167 178 180 136 135
1790.0 191 185 161 120 106 137 142 121 124 110
1830.0 95 137 165 150 159 164 142 150 136 86
1870.0 98 111 120 127 114 105 116 137 122 112
1910.0 103 121 137 103 97 103 111 117 98 108
1950.0 129 141 119 47 28 63 92 101 92 92
1990.0 95 96 115 111 127 123 72 100 128 96
2030.0 89 84 79 78 104 115 120 112 93 57
2070.0 0 37 46 34 58 35 28 51 98 83
2110.0 66 73 23 31 58 42 76 94 76 74
2150.0 60 46 52 28 39 72 57 41 41 16
2190.0 17 23 14 25 37 48 49 62 48 21
2230.0 19 53 94 52 17 48 83 135 141 108
2270.0 98 67 43 85 93 63 82 88 73 62
2310.0 57 77 62 66 78 61 57 46 52 51
2350.0 74 89 51 32 1 8 29 41 25 24
2390.0 58 52 42 46 45 32 37 59 73 70
2430.0 52 36 58 72 39 20 16 24 19 40
2470.0 47 3 43 91 54 55 104 137 144 130
2510.0 114 82 68 76 76 68 26 48 90 101
2550.0 106 141 197 222 195 223 286 311 279 265
2590.0 314 327 326 323 258 211 206 190 177 132
2630.0 85 120 119 91 90 57 74 98 71 107
2670.0 130 90 50 66 90 35 24 61 93 123
2710.0 123 101 112 197 227 240 251 264 280 284
2750.0 245 217 233 205 216 150 75 118 152 211
2790.0 224 173 157 177 223 290 273 229 253 327
2830.0 389 424 468 506 638 831 1089 1468 1863 2106
2870.0 2201 2336 2476 2603 2731 2883 3023 3134 3130 3244
2910.0 3483 3771 4243 4709 5006 5226 5500 5806 6136 6674
2950.0 7354 7890 8396 9191 10000 9843 8974 9216 9229 7819
2990.0 6282 5010 3983 3076 2241 1584 1145 815 593 407
3030.0 307 324 283 193 121 37 117 205 230 228
3070.0 156 144 170 274 327 181 130 176 137 149
3110.0 66 11 141 203 110 32 91 174 164 150
3150.0 174 144 123 177 201 187 128 127 125 129
3190.0 198 215 274 255 225 250 190 152 182 200
3230.0 185 165 167 195 189 158 166 124 80 66
3270.0 128 232 156 96 144 141 181 184 117 76
3310.0 53 75 52 76 50 100 150 133 116 64
3350.0 153 213 173 102 2 83 190 141 115 102
3390.0 169 216 113 98 197 229 137 46 120 179
3430.0 189 149 104 150 223 231 144 76 63 132
3470.0 183 91 29 56 45 96 119 55 55 154
3510.0 165 84 94 202 199 151 117 144 164 75
3550.0 10 67 130 109 193 217 132 168 171 169
3590.0 198 166 171 193 123 103 184 191 156 137
3630.0 153 180 82 147 185 112 127 162 181 129
3670.0 165 142 54 55 148 212 165 168 219 185
3710.0 129 115 126 140 84 76 115 115 116 71
3750.0 113 217 244 267 200 202 189 126 147 118
3790.0 200 279 215 123 103 91 124 189 122 92
3830.0 149 134 97 118 204
##END=
