##TITLE=Cyclopropylamine
##JCAMP-DX=4.24
##DATA TYPE=INFRARED SPECTRUM
##ORIGIN=NIST Mass Spectrometry Data Center
##OWNER=NIST Standard Reference Data Program
Collection (C) 2009 copyright by the U.S. Secretary of Commerce
on behalf of the United States of America. All rights reserved.
##CAS REGISTRY NO=765-30-0
##MOLFORM=C 3 H 7 N
##$NIST SOURCE=MSDC-IR
##SPECTROMETER/DATA SYSTEM=HP-GC/MS/IRD
##STATE=gas
##XUNITS=1/CM
##YUNITS=ABSORBANCE
##XFACTOR=1.0
##YFACTOR=0.000001400
##DELTAX=4.0
##FIRSTX=550.0
##LASTX=3846.0
##FIRSTY=0.001830
##MAXX=3846
##MINX=550
##MAXY=0.014
##MINY=0
##NPOINTS=825
##XYDATA=(X++(Y..Y))
550.0 1307 572 37 157 107 97 117 72 48 68
590.0 144 197 237 292 287 310 388 480 544 598
630.0 614 676 749 810 894 932 981 1045 1160 1291
670.0 1376 1478 1622 1820 2076 2366 2709 3093 3518 3982
710.0 4494 5049 5696 6299 6769 7342 7920 8391 8898 9484
750.0 9872 9994 10000 9190 8027 7511 7110 6591 6062 5581
790.0 5049 4550 4077 3604 3331 3150 2848 2512 2305 2147
830.0 1909 1732 1582 1433 1401 1358 1260 1134 1100 1216
870.0 1214 1115 1060 1036 1184 1311 1303 1302 1329 1389
910.0 1381 1335 1335 1351 1501 1708 1450 1034 881 839
950.0 849 837 960 1369 1544 1112 847 957 1169 1452
990.0 1867 2219 2361 2441 2526 2770 3179 3308 2768 2480
1030.0 2721 2711 2300 1873 1591 1248 1011 800 662 637
1070.0 599 587 463 444 480 428 462 456 501 447
1110.0 340 345 391 440 336 282 353 473 478 428
1150.0 448 523 636 580 541 603 697 797 831 911
1190.0 1047 1196 1253 1242 1269 1319 1310 1252 1199 1100
1230.0 1024 953 852 725 582 423 296 233 204 168
1270.0 130 77 42 61 67 35 24 63 109 153
1310.0 194 258 364 494 644 851 1135 1486 1851 2216
1350.0 2570 2850 3017 3066 3167 3342 3313 3091 2956 2862
1390.0 2658 2373 2032 1689 1456 1326 1268 1244 1259 1365
1430.0 1550 1768 1915 1938 1937 1945 2023 1938 1732 1610
1470.0 1526 1441 1237 999 752 519 368 275 219 206
1510.0 216 206 192 165 138 147 158 185 229 254
1550.0 281 309 389 460 515 600 729 903 1068 1241
1590.0 1421 1583 1738 1877 2006 2102 2200 2243 2195 2161
1630.0 2076 1912 1730 1568 1439 1336 1229 1110 979 817
1670.0 648 488 355 249 161 129 127 117 115 116
1710.0 111 122 140 127 111 114 125 114 91 92
1750.0 122 129 129 124 137 156 133 107 101 101
1790.0 112 103 84 73 48 35 33 33 57 75
1830.0 72 73 75 85 93 99 103 118 132 126
1870.0 108 97 98 101 109 104 89 73 74 77
1910.0 56 56 68 39 19 24 17 24 20 12
1950.0 8 2 2 0 2 7 21 24 15 24
1990.0 37 29 49 62 58 80 104 116 122 129
2030.0 142 161 167 176 178 163 158 157 156 162
2070.0 149 122 95 81 83 72 57 55 49 48
2110.0 42 37 37 48 52 46 42 48 54 46
2150.0 39 42 49 45 47 49 50 66 85 90
2190.0 92 87 89 78 70 92 95 91 105 112
2230.0 124 127 151 163 173 204 210 216 227 238
2270.0 258 271 275 274 255 249 240 212 198 190
2310.0 182 175 171 168 156 143 141 134 129 127
2350.0 130 151 175 188 179 172 161 132 110 86
2390.0 63 58 58 61 62 68 68 65 72 76
2430.0 94 103 107 106 88 91 87 91 101 114
2470.0 108 96 110 117 112 107 97 96 104 92
2510.0 55 60 83 88 84 76 71 70 80 68
2550.0 54 71 81 76 79 79 73 76 74 68
2590.0 87 109 103 91 91 87 87 99 91 74
2630.0 89 95 98 96 100 121 123 123 102 85
2670.0 103 124 129 119 114 145 146 130 139 144
2710.0 155 167 173 179 172 168 178 188 195 196
2750.0 190 199 191 182 195 179 158 181 195 195
2790.0 181 192 227 243 277 320 364 404 438 478
2830.0 528 596 653 708 753 783 790 777 780 803
2870.0 805 798 810 806 802 807 813 820 852 905
2910.0 957 1036 1102 1200 1355 1533 1750 1992 2232 2494
2950.0 2800 3114 3419 3806 4252 4886 5538 5649 5610 5726
2990.0 5873 6035 6156 6267 6253 6086 5830 5572 5518 5509
3030.0 5167 4680 4229 3817 3509 3215 2965 2834 2795 2860
3070.0 2988 3111 3192 3365 3911 4050 3849 3824 3250 2859
3110.0 2754 2433 2084 1727 1403 1080 840 674 526 408
3150.0 306 224 193 161 148 161 137 115 113 115
3190.0 111 109 86 90 103 111 139 118 78 97
3230.0 105 92 73 75 104 109 107 103 82 79
3270.0 71 49 60 78 87 89 95 98 104 90
3310.0 84 111 138 196 232 264 278 218 166 240
3350.0 293 225 213 239 230 230 200 169 182 177
3390.0 163 168 179 186 205 238 214 192 216 217
3430.0 238 257 245 215 177 194 192 147 158 166
3470.0 148 155 146 151 176 201 181 142 128 111
3510.0 97 107 127 129 128 102 83 60 52 86
3550.0 122 137 120 125 163 127 74 87 96 108
3590.0 112 96 82 69 99 121 119 146 113 104
3630.0 124 104 102 100 90 65 50 94 109 107
3670.0 139 122 107 138 144 99 80 111 128 107
3710.0 103 127 124 110 139 132 180 198 157 140
3750.0 132 144 133 142 128 142 145 132 156 176
3790.0 161 125 119 100 97 101 106 138 151 163
3830.0 178 165 201 197 162
##END=
