##TITLE=1,4-Dichloro-2-butyne
##JCAMP-DX=4.24
##DATA TYPE=INFRARED SPECTRUM
##ORIGIN=NIST Mass Spectrometry Data Center
##OWNER=NIST Standard Reference Data Program
Collection (C) 2009 copyright by the U.S. Secretary of Commerce
on behalf of the United States of America. All rights reserved.
##CAS REGISTRY NO=821-10-3
##MOLFORM=C 4 H 4 Cl 2
##$NIST SOURCE=MSDC-IR
##SPECTROMETER/DATA SYSTEM=HP-GC/MS/IRD
##STATE=gas
##XUNITS=1/CM
##YUNITS=ABSORBANCE
##XFACTOR=1.0
##YFACTOR=0.000010600
##DELTAX=4.0
##FIRSTX=550.0
##LASTX=3846.0
##FIRSTY=0.001081
##MAXX=3846
##MINX=550
##MAXY=0.106
##MINY=0
##NPOINTS=825
##XYDATA=(X++(Y..Y))
550.0 102 75 63 61 58 43 37 42 48 39
590.0 25 23 17 14 17 9 9 19 29 43
630.0 58 65 80 101 123 156 204 257 318 403
670.0 510 628 778 969 1198 1491 1899 2513 3492 4933
710.0 6535 7513 7441 6599 5014 3210 2127 1627 1280 1006
750.0 786 630 526 454 407 380 361 353 346 338
790.0 338 338 331 318 296 260 218 174 126 101
830.0 86 63 49 35 27 24 21 13 9 10
870.0 9 5 3 8 9 11 11 15 19 16
910.0 18 17 17 19 13 13 13 10 6 2
950.0 0 1 4 4 3 1 4 3 0 2
990.0 4 5 4 5 8 11 13 11 9 12
1030.0 16 16 16 19 24 26 26 31 39 44
1070.0 54 66 76 79 79 75 68 67 73 78
1110.0 88 101 117 142 182 238 324 463 686 1034
1150.0 1517 2005 2280 2269 1939 1277 658 355 240 190
1190.0 168 157 157 164 181 212 251 301 368 452
1230.0 575 758 1036 1480 2220 3425 5297 7836 9892 10000
1270.0 9056 7069 4018 1974 1177 814 585 416 294 210
1310.0 157 123 100 84 71 64 63 71 71 70
1350.0 78 82 82 83 80 77 75 73 74 80
1390.0 84 93 107 121 138 163 196 228 248 258
1430.0 263 271 268 252 240 222 205 180 147 118
1470.0 97 81 56 43 39 33 27 26 26 33
1510.0 32 25 28 29 24 20 19 22 22 17
1550.0 15 14 18 13 10 11 14 16 13 15
1590.0 17 18 16 16 16 13 13 14 11 8
1630.0 8 11 8 5 8 11 9 3 0 0
1670.0 0 0 0 5 7 5 11 18 18 13
1710.0 9 10 10 6 2 7 13 7 4 7
1750.0 11 7 5 6 8 8 6 5 8 7
1790.0 11 20 27 38 45 45 42 32 21 15
1830.0 10 4 4 5 6 6 2 2 5 6
1870.0 7 5 4 5 6 7 7 6 5 9
1910.0 8 9 8 7 9 13 16 20 22 22
1950.0 23 21 16 11 10 11 10 8 8 6
1990.0 4 5 3 3 3 2 3 3 3 5
2030.0 5 6 7 11 15 17 18 17 18 21
2070.0 23 20 20 20 19 18 13 12 9 8
2110.0 9 9 7 7 9 7 9 11 12 14
2150.0 15 15 14 12 13 12 7 6 8 7
2190.0 7 6 5 4 5 4 5 7 5 4
2230.0 5 4 6 6 5 4 5 6 5 4
2270.0 4 5 5 6 9 10 14 17 21 27
2310.0 33 40 46 51 54 56 55 53 48 42
2350.0 38 35 30 27 23 18 11 8 8 7
2390.0 5 5 8 8 10 11 10 12 15 16
2430.0 16 14 12 9 7 5 6 4 1 1
2470.0 3 4 3 1 1 1 4 6 8 10
2510.0 12 14 18 18 16 15 10 6 2 0
2550.0 1 2 2 4 3 4 5 7 8 13
2590.0 14 16 21 20 17 14 9 8 8 7
2630.0 8 7 6 7 5 8 12 13 15 17
2670.0 21 24 27 32 39 49 62 80 92 92
2710.0 83 68 51 34 26 23 20 17 13 14
2750.0 16 14 12 11 12 12 11 13 15 15
2790.0 13 14 17 17 19 21 23 30 35 41
2830.0 48 55 66 77 90 100 107 116 117 116
2870.0 112 103 92 80 70 63 53 45 41 43
2910.0 50 61 76 96 119 156 206 274 352 428
2950.0 499 562 611 644 658 655 634 592 535 469
2990.0 395 316 242 178 135 101 78 62 51 44
3030.0 39 35 31 29 29 25 24 27 24 23
3070.0 24 24 23 23 19 16 14 16 18 17
3110.0 18 17 14 12 12 15 17 15 14 14
3150.0 15 18 20 15 13 12 11 12 14 13
3190.0 15 17 11 13 17 15 15 13 15 13
3230.0 12 13 16 14 10 12 14 11 8 7
3270.0 8 11 11 3 5 12 9 8 12 15
3310.0 14 10 9 8 11 15 12 12 10 9
3350.0 15 13 6 3 7 10 9 10 13 16
3390.0 14 10 8 6 5 7 10 11 8 10
3430.0 11 10 11 13 15 10 10 12 11 12
3470.0 12 16 19 16 13 19 23 24 25 25
3510.0 27 23 17 17 12 5 5 7 8 12
3550.0 10 12 11 13 21 21 16 17 16 18
3590.0 21 15 14 11 10 14 12 9 5 11
3630.0 14 2 0 0 7 15 11 9 9 11
3670.0 18 24 24 19 23 28 27 23 20 22
3710.0 25 22 14 12 11 10 14 14 15 17
3750.0 15 10 9 12 14 13 10 9 5 10
3790.0 12 6 5 6 6 5 4 6 8 10
3830.0 9 10 11 9 6
##END=
