##TITLE=Cyanoacetic acid
##JCAMP-DX=4.24
##DATA TYPE=INFRARED SPECTRUM
##ORIGIN=NIST Mass Spectrometry Data Center
##OWNER=NIST Standard Reference Data Program
Collection (C) 2009 copyright by the U.S. Secretary of Commerce
on behalf of the United States of America. All rights reserved.
##CAS REGISTRY NO=372-09-8
##MOLFORM=C 3 H 3 N O 2
##$NIST SOURCE=MSDC-IR
##SPECTROMETER/DATA SYSTEM=HP-GC/MS/IRD
##STATE=gas
##XUNITS=1/CM
##YUNITS=ABSORBANCE
##XFACTOR=1.0
##YFACTOR=0.000007900
##DELTAX=4.0
##FIRSTX=550.0
##LASTX=3846.0
##FIRSTY=0.001288
##MAXX=3846
##MINX=550
##MAXY=0.079
##MINY=0
##NPOINTS=825
##XYDATA=(X++(Y..Y))
550.0 163 290 250 260 270 295 318 356 386 418
590.0 463 545 600 611 645 674 798 897 753 708
630.0 742 784 831 882 1015 1050 977 839 867 3084
670.0 3462 1322 899 965 998 968 840 695 603 492
710.0 416 373 492 430 226 199 180 185 180 126
750.0 100 87 71 52 38 31 26 20 12 8
790.0 7 4 0 0 0 0 2 9 11 14
830.0 20 25 32 36 40 45 51 56 58 54
870.0 50 48 46 45 47 47 48 54 58 61
910.0 65 60 55 55 61 68 75 80 84 87
950.0 88 91 92 94 90 82 77 70 59 49
990.0 46 42 39 34 34 42 41 34 44 52
1030.0 48 51 54 59 62 67 80 88 94 106
1070.0 125 149 177 218 275 354 467 611 786 993
1110.0 1217 1423 1599 1720 1782 1805 1774 1659 1468 1281
1150.0 1136 1026 924 808 698 600 509 442 400 376
1190.0 365 363 360 353 347 334 315 294 272 256
1230.0 237 220 211 205 197 192 196 200 201 205
1270.0 211 215 221 232 235 234 240 241 231 234
1310.0 241 234 229 237 245 249 277 308 329 375
1350.0 443 494 543 599 637 648 645 616 560 502
1390.0 438 391 366 343 329 319 294 295 321 285
1430.0 229 227 219 187 178 178 156 143 188 177
1470.0 124 120 133 142 113 95 109 116 102 86
1510.0 94 108 96 87 103 96 71 74 71 53
1550.0 50 54 49 50 57 43 38 46 36 30
1590.0 34 32 33 40 38 40 51 56 60 68
1630.0 70 71 69 63 59 58 54 45 41 38
1670.0 37 36 36 40 45 45 50 61 67 72
1710.0 80 91 105 118 133 154 183 215 255 311
1750.0 382 470 585 735 924 1156 1437 1752 2064 2299
1790.0 2434 2544 2618 2604 2467 2209 1895 1565 1252 993
1830.0 782 608 462 343 253 185 137 105 83 67
1870.0 55 45 36 29 26 23 20 19 17 13
1910.0 11 11 11 11 12 13 12 11 11 10
1950.0 8 7 9 9 8 8 9 9 8 7
1990.0 8 7 8 6 4 6 3 2 4 2
2030.0 0 0 2 2 3 2 3 3 0 0
2070.0 3 4 5 6 4 3 4 3 3 2
2110.0 2 2 3 4 8 13 19 27 36 48
2150.0 57 64 68 67 65 67 66 55 36 20
2190.0 11 7 7 11 16 22 29 37 49 64
2230.0 79 99 123 152 183 221 268 330 409 512
2270.0 647 834 1079 1394 1816 2359 3008 3723 4485 5362
2310.0 6215 6770 7342 7775 7752 7707 7470 7297 7390 6872
2350.0 6815 8373 9693 10000 9677 8744 7345 5548 3604 1931
2390.0 854 357 191 135 105 88 76 70 64 57
2430.0 52 49 46 42 40 36 32 32 31 31
2470.0 30 29 30 31 33 31 28 25 22 21
2510.0 16 13 14 12 10 9 11 12 11 9
2550.0 11 9 8 7 7 8 10 12 11 10
2590.0 11 13 15 16 18 21 23 23 21 16
2630.0 12 14 16 13 9 8 9 9 7 5
2670.0 4 5 6 5 2 0 0 2 3 1
2710.0 0 2 3 4 2 1 1 0 1 1
2750.0 0 1 3 5 3 0 3 1 0 0
2790.0 1 1 1 3 3 2 2 6 10 10
2830.0 9 11 12 14 17 17 16 16 19 21
2870.0 20 20 23 27 25 25 28 27 28 31
2910.0 34 40 45 49 56 65 72 76 76 68
2950.0 60 61 58 61 72 74 73 64 56 53
2990.0 42 38 33 33 33 36 39 29 29 29
3030.0 29 29 32 35 30 31 32 30 29 32
3070.0 28 25 24 24 24 22 23 18 17 14
3110.0 15 15 12 13 17 16 11 10 16 18
3150.0 18 19 17 18 22 17 13 16 16 18
3190.0 23 23 23 20 19 12 8 13 14 13
3230.0 10 11 12 9 9 8 4 1 2 3
3270.0 0 2 3 2 3 6 9 6 4 4
3310.0 2 1 1 0 0 3 4 5 7 6
3350.0 5 6 3 3 7 11 8 2 0 2
3390.0 5 4 5 2 2 7 11 11 8 7
3430.0 7 9 11 12 10 6 3 4 4 5
3470.0 11 13 17 17 15 17 19 21 22 24
3510.0 29 37 45 51 58 70 88 113 141 177
3550.0 235 331 480 674 860 971 1012 1016 1001 1009
3590.0 944 750 541 386 281 203 157 153 163 172
3630.0 172 162 141 115 93 72 62 57 57 65
3670.0 77 95 112 131 158 182 197 205 204 188
3710.0 152 114 123 166 212 248 269 263 223 174
3750.0 123 77 51 32 21 18 17 17 17 19
3790.0 20 19 19 23 21 17 22 25 23 20
3830.0 19 20 19 20 19
##END=
