##TITLE=Ethylene
##JCAMP-DX=4.24
##DATA TYPE=INFRARED SPECTRUM
##CLASS=IUPAC A
##ORIGIN=NIST, Anayltical Chemistry Division, 301-975-3108
##OWNER=COPYRIGHT (C) 1998 by the U.S. Secretary of Commerce
##DATE=98/10/1
##$SPECTRA VERSION=1.00
##$UNCERTAINTY IN Y=2.1 % relative (B=1.1E-04,C=8.5E-10,D=2.7E-14)
##CAS NAME=Ethene
##CAS REGISTRY NO=74-85-1
##MOLFORM=C H2: C H2
##MP=-169.15 C
##BP=-103.71 C
##$NIST SOURCE=QUANT-IR
##SPECTROMETER/DATA SYSTEM=IFS66V (Bruker)
##INSTRUMENT PARAMETERS=KBr Beam splitter; MCT Detector; Multipass cell
##STATE=gas
##SAMPLE DESCRIPTION=Ethylene Primary Gas Standard
##PRESSURE=101.3 kPa
##TEMPERATURE=23 C
##SAMPLING PROCEDURE=1 L/min Flow
##RESOLUTION=1.9290
##DATA PROCESSING=Boxcar Apodization
##XUNITS=cm-1
##YUNITS=(micromol/mol)-1m-1 (base 10)
##XFACTOR=1.0
##YFACTOR=9.0949E-13
##DELTAX=0.9645
##FIRSTX=574.687
##LASTX=3974.595
##FIRSTY=0
##MAXX=3973.63
##MINX=574.69
##MAXY=.0010758
##MINY=-1.64E-06
##NPOINTS=3527
##XYDATA=(X++(Y..Y))
574.69 22026-482234-32458-284438-582706-792194
579.51-269184-551000-151942-628202-46092-688632
585.29-46384-606414-121196-751872-250420-607850
591.08-109928-746922-90724-710960 200530-616346
596.86-85824-781596 7504-662778-90514-568334
602.65 64002-582294-82044-553778-95578-567220
608.44-47080-533138-10382-544730 99756-518378
614.22-27586-536654 193440-557914 79386-453468
620.01-49088-515092 76512-581288 139080-615354
625.79 6500-460748-34248-524950 19168-490280
631.58 52400-661974 145908-654110 212822-479500
637.36 6782-513322 79886-526870 44478-469362
643.15 87316-446956 118154-345800 88668-459760
648.93 38124-417110 51628-467718 151842-544836
654.72 119670-435608 150778-429564 251956-545070
660.50 197518-546352 205092-592530 287272-574554
666.29 545996-411942 357956-472816 361988-372848
672.08 274116-133952 222046-190942 148906-262900
677.86 73228-143112 87688-128056-4668-74684
683.65 179702-31148 281438-230524 278400-246678
689.43 384526-280066 497126-334610 631728-232428
695.22 850450-269368 1027474-323602 463408-444082
701.00 599332-488804 790710-474926 1053044-504384
706.79 1231230-421036 1255858-409678 1017590-425330
712.57 1132302-189240 923026-141388 1088006 710536
718.36 1189524 497758 847996 747766 539220-161078
724.14 832352 5022 1054134 325160 1294658 497360
729.93 889898 512642 906706 760240 897056 446334
735.71 1086574 1113988 1560894 1757314 654584 1064798
741.50 455906 1305704 595284 1530988 835846 651534
747.29 1450838 1103766 1139214 123952 984832 346076
753.07 1184754 841178 1419806 1556042 2142448 2125972
758.86 1891744 97094 916690 341018 906676 575672
764.64 1291250 999262 1931722 2210320 1077200-47510
770.43 540550 110750 679310 432380 1345434 1381036
776.21 2555250 2797658 1247770 10044 447856 140120
782.00 355250 323452 641322 1285920 1869252 1355348
787.78 313686 416898 304170 115954 434292 329774
793.57 509010 1006342 2859178 398314 447402 108212
799.35 522872 198780 656094 79230 615262 495532
805.14 926238 248744 740258 211182 811506 207834
810.93 838090 281396 825686 488450 862676 555088
816.71 1045870 730366 1127536 829922 1423552 973016
822.50 1501256 1546940 1638092 1782110 1788018 2699686
828.28 1678390 2924582 2572440 3043014 2980372 4235354
834.07 4610070 4682660 5273718 5606306 5673194 6067296
839.85 6976198 6274126 6532834 10357960 9932620 9487172
845.64 9197638 11526230 9322398 15312950 13939020 15272690
851.42 11703010 18151240 15363360 16631830 17475200 24538500
857.21 15025650 21866340 16574180 27917490 16943900 30843740
862.99 20575180 31360950 23733560 36882300 25529930 40206880
868.78 24466710 39957260 23608330 42559800 24325240 51927970
874.57 43443400 40525850 35505400 54560150 44352580 52853280
880.35 56087230 53669710 46624870 37165500 47902860 68544140
886.14 66649940 46600060 65681030 70228120 69498190 37162430
891.92 66442140 43620350 87007300 77867740 136411800 42340500
897.71 84544770 35423590 66949960 59028090 140481400 45165190
903.49 75708940 40115970 92454560 30632230 174189300 187667400
909.28 34856990 83364680 36065660 77388500 32178580 170754500
915.06 163163700 13409770 85852080 1538696 99416420 29402100
920.85 175772000 237593100 73896740 63593560 42391330 67949650
926.63 62491140 48194890 133438200 80846060 85371660 60700450
932.42 71520100 61470980 64922520 57293350 83925740 69269510
938.21 119725000 114151300 132285700 83581410 135470700 89772700
943.99 178630400 146422800 280527600 226179700 721644900 1182900000
949.78 304899800 311765800 131095600 139400800 93200340 151142000
955.56 90903910 128431100 76016140 108400300 67083640 79258500
961.35 70687640 93922160 66688740 103246500 88773380 72416780
967.13 86724700 106361900 166066200 100534800 47083480 67704700
972.92 69722230 61591710 76058720 67564930 112946700 210015000
978.70 74469560 62542120 58028910 58588710 68266720 43782080
984.49 99212580 161060700 248342200 204231400 29994970 69921860
990.27 62699380 61305560 72946290 71239870 63744100 80439530
996.06 202716400 81901880 62756170 78608060 76238450 77457380
1001.85 47495940 95161540 71316670 112266700 166674200 96835180
1007.63 70009940 67237580 53377410 75786600 56669010 60102240
1013.42 68141900 85731100 65667580 68781100 40638740 53754080
1019.20 98646670 52802700 63548040 59312770 64082390 38605050
1024.99 60742200 46375200 100436500 53369330 44877650 37932640
1030.77 52881740 38517090 46777900 31930220 40925940 36780240
1036.56 63090140 34282290 30525240 25470980 29239510 20837750
1042.34 34830280 39415460 30395720 37663570 37525440 55414700
1048.13 24046150 30849300 17401570 27352480 15949030 25086350
1053.91 10311190 32706320 15618870 32159800 20460040 24620280
1059.70 11531050 21134880 10128060 18781970 9097224 15678030
1065.48 7885402 15023730 21483930 23119980 14195540 15396510
1071.27 11762320 13507650 10002660 11905060 8468982 10469380
1077.06 7520956 9895160 8115944 13420070 5918808 11345520
1082.84 4968796 9940554 3937066 8575846 3314714 7521774
1088.63 3038446 8013954 2681106 5846520 6605736 6358348
1094.41 5178656 5683776 4015998 5136582 3271894 4577436
1100.20 2812732 4208434 1863324 3333012 1518728 4726572
1105.98 1764392 3915682 1378126 3302836 1029424 3006344
1111.77 955610 2425512 364128 2040360 201356 1707266
1117.55 1508470 2397578 984264 2185568 649050 2150362
1123.34 355770 1679280 74896 1482278-155220 1391484
1129.12-345214 1551072-4022 1337982-160252 1181664
1134.91-308008 972110-403812 874044-497144 732878
1140.70-523660 579434-411588 1053466-408060 882954
1146.48-520648 772290-600034 683724-612472 619004
1152.27-671572 533698-667002 521200-591794 473222
1158.05-652162 452442-639086 420566-667384 386442
1163.84-673958 349220-743906 322970-759008 386606
1169.62-682254 346640-673166 345104-679800 273784
1175.41-707730 264782-721320 249084-710806 237318
1181.19-689726 253512-685970 242616-700944 220732
1186.98-705472 196630-704348 170918-674450 174006
1192.76-696364 179598-674842 158142-679524 144874
1198.55-656266 149246-663396 133840-678962 144554
1204.34-660928 133144-680260 136098-665090 132420
1210.12-658030 106938-683076 146414-635390 112116
1215.91-649470 100022-640086 116346-620984 106508
1221.69-619102 57950-625898 67470-610170 81980
1227.48-614850 76338-615068 56766-604606 59318
1233.26-602436 63236-554526 50668-572454 49490
1239.05-584060 35160-575524 37800-545274 30832
1244.83-550626 20268-555184 28868-562530 38148
1250.62-569290 15540-521348 22718-547988-19550
1256.40-556116 10094-557768-13984-551572 6216
1262.19-522632-6792-527326 4736-511812-39450
1267.98-511974-2928-508210-24366-515098-20180
1273.76-528416-12346-497088-9764-510774-14224
1279.55-497490-35318-514936-46246-504002-34424
1285.33-484090-71960-480786-60296-466842-60624
1291.12-450264-55932-459206-79152-453216-50174
1296.90-479462-85544-451100-69656-447314-77778
1302.69-435938-62338-407508-50010-417828-92662
1308.47-432432-96858-426136-100490-430604-91804
1314.26-435254-111018-433448-108464-442882-69008
1320.04-393256-96014-401656-95672-372444-98472
1325.83-411716-97848-385076-119756-394216-99308
1331.61-385040-90018-333750-39860-352646-83676
1337.40-364850-124498-354160-110632-342392-112058
1343.19-372246-129260-325184-149866-314798-111218
1348.97-262728-84678-283792-138190-310382-131472
1354.76-314320-184064-308898-157818-321438-136718
1360.54-309610-170636-262502-114406-95486-8292
1366.33-82094-8966-211524-35940-116870-10612
1372.11-70176 70006 63532 135044 201144 286132
1377.90 296394 549712 774510 716728 903490 1161386
1383.68 1276502 1524964 1902260 2074382 2441712 3075056
1389.47 3374246 3618710 4534856 5246764 5378026 6119732
1395.25 7738100 7884610 8118918 10222270 11710190 10616210
1401.04 12929830 15724210 14889190 15181050 19782780 19825840
1406.83 18681910 22528610 25550210 22690580 24745180 29129900
1412.61 28573500 26784590 31293860 32892170 30718360 31065970
1418.40 33723350 33278880 32315910 32323360 31683610 32865950
1424.18 30768000 28076160 27194050 28174910 23410250 19800450
1429.97 20012780 18428320 13484280 10536740 11153670 8145160
1435.75 5258362 4127298 4722598 4843248 8015794 3970306
1441.54 27100680 66873180 59760790 44105920 35550060 23743080
1447.32 22977100 14760450 14982800 13608280 17741730 9828980
1453.11 19968240 13057880 22448790 13087120 26291640 15107970
1458.89 26468320 18402700 30240560 15189840 28041740 24987410
1464.68 26720300 16683130 27709930 27506310 19643640 20835200
1470.47 23450070 25750650 14161630 23776060 16086600 22706020
1476.25 11607900 21896850 9976506 19170260 10226340 16163920
1482.04 7423312 14461230 8748804 10320540 7056146 8934382
1487.82 7009292 6737680 5716004 5268122 4498250 5527158
1493.61 3025626 3768230 2292554 4006160 1318062 2734992
1499.39 1118538 2432994 610920 1924840 261900 1457348
1505.18 2356 1198440-241730 968454-326602 867064
1510.96-490638 598528-520708 566300-629942 423684
1516.75-708178 474554-736524 293750-802746 314438
1522.53-698842 306104-801724 275850-765248 227106
1528.32-736714 219140-736202 213468-769952 131430
1534.11-709070 156318-711554 141210-775124 150938
1539.89-717136 96216-744426 157334-717072 106720
1545.68-672954 122134-693876 123498-692042 115706
1551.46-664050 87504-703306 102884-605368 102128
1557.25-764810 53836-746452 125430-661088 79972
1563.03-628804 75826-632676 96968-626800 71694
1568.82-679660 97244-639906 97094-594684 70872
1574.60-666834 9314-606274 45182-606960 52896
1580.39-598554 61104-576564 53758-605556 51572
1586.17-580998 55868-598852 78372-547492 31580
1591.96-586810 27606-576034 32454-569258 27124
1597.74-575718 35170-563792 25988-584140 30362
1603.53-559486 50502-558072 39048-569868 30682
1609.32-571704 36180-546266 40344-555776 17008
1615.10-601180-46678-537346-282-523664 8796
1620.89-534084-5154-536748 25962-546876 15676
1626.67-586416-4444-535004 21646-544590 1364
1632.46-526624-11406-636392-15140-558288-5222
1638.24-534350-10744-528520-7964-532584-2000
1644.03-536976-70862-553036-40678-523962-5916
1649.81-543662-59030-665582-77230-559022 7958
1655.60-532842-9594-537596-12328-528840-13916
1661.38-567198-39012-515570-41868-503352-13422
1667.17-525140-84608-538132-32890-538460-34088
1672.96-511668-53270-570050-13222-525374 12228
1678.74-541708-35498-523568-27516-556582-102968
1684.53-551188 17936-537158 8450-516564 2306
1690.31-502138 13076-519064 22492-549798-72078
1696.10-485808-9666-497924-103912-529312 3642
1701.88-469324 9422-452826 1330-522010 123292
1707.67-482254 99462-491280 96486-461760 22380
1713.45-434786 65870-377396-16376-481870 134400
1719.24-403660 102460-313832 100288-356606 50532
1725.02-284696 88260-264436 121770-369118 199284
1730.81-377572 404330-518848 189086-450706 216038
1736.60-290946 260756-418298 181962-199554 486298
1742.38-281014 111198-311906 304292-185030 84090
1748.17-354516 493528-64338 84132-341564 369392
1753.95-174660 86090-85868 444048-446942 346002
1759.74-419210 166144-232180 56772-382716 65672
1765.52-415642 84614-469052 111026-390418 181460
1771.31-441986 208974-218990 298710-320148 300458
1777.09-279844 292466-318792 295388-235574 367586
1782.88-321066 235794-311742 281922-356272 191474
1788.66-386078 181066-545160 105676-562858 245608
1794.45-484000 96518-570786 92700-547096 95170
1800.24-667924 137620-681592 35618-663412 166042
1806.02-573230 118220-622178 180912-645050 153822
1811.81-625906 288190-697986 251604-666686 228234
1817.59-471504 453116-461170 468372-401886 490002
1823.38-176630 729328-359066 934180 40116 883830
1829.16 93492 1346258 252944 1753766 118232 2858640
1834.95 415726 2611734 1192114 2563890 2288816 2964414
1840.73 2838598 2793918 3444502 4463428 3859526 4711520
1846.52 3562572 7988490 3464792 8528148 2964224 11498650
1852.30 3380210 11461300 5024076 11332200 6988876 12151170
1858.09 7753030 9755752 12084360 11972040 9321242 9858098
1863.88 14864360 10970850 10319740 11070640 13767100 10050050
1869.66 11568130 9925692 11819240 8527516 11787770 6494388
1875.45 9620134 5445372 9394214 2917194 8156746 2659044
1881.23 6009220-22246 4928114-209610 6619900 2898768
1887.02 27440960 73149210 7515836 4432718 5322356 1773868
1892.80 3417746 3441140 4879776 2745720 6807984 5645352
1898.59 7446444 7528788 11046960 9371024 11052210 11826910
1904.37 13850890 12420580 14153240 14369760 15315080 14437620
1910.16 16048260 14823310 15695280 14072040 15430490 13923970
1915.94 14238260 12838200 13802740 12067690 12293270 11344870
1921.73 11208290 9210414 9681492 9065828 7630728 7350852
1927.51 7538392 6630904 5782232 5281760 5002208 3694328
1933.30 4031572 3541424 2897484 2385012 2831484 1867492
1939.09 2034584 1284172 1457442 1411392 1059118 738826
1944.87 858104 433774 679194 560242 270846 57952
1950.66 208238-28312 97588-157310-150814-295462
1956.44-179354-203914-80088-210862-255034-165372
1962.23-41582-168620-231968-184030-98528-11320
1968.01 15702-184932-208126-401298-89806-89734
1973.80-77094-396 57354 52568-3978-92658
1979.58-9732-116914 184668 39138 20464-37268
1985.37-149540-36242 165624 359742 82666 46716
1991.15-204980-78544-242922 429092 194072 115962
1996.94 34626 58190 222062 37468 228918 318126
2002.73 229766 484302 89544 540654 171552 270874
2008.51 657812 284672 670930 25296 646418 645484
2014.30 839808 604520 435470 1220546 631034 1104804
2020.08 275166 1417652 694136 1226734 616500 1158744
2025.87 1037002 830084 1029502 621584 1301616 270556
2031.65 1458550 201722 1202720 26334 1362384 82588
2037.44 821032-201028 705094-47674 442802 72026
2043.22 608108 950322 2366704 6755514 1827304-521758
2049.01 192054-366140 204264 217008 483784 6078
2054.79 565260 595980 787378 651784 1336870 1043420
2060.58 1300410 1429324 1692448 1523632 2029194 1729440
2066.37 2012560 1992080 2091944 1872422 2335014 1805566
2072.15 2035982 1964038 1717322 1734904 2042562 1344446
2077.94 1778908 1408762 1185586 1309350 1271560 698164
2083.72 1222388 613590 798046 407166 615088 314912
2089.51 515686 71408 261418 54984 159516-99360
2095.29-26148-32456 34780-183892 9888-110642
2101.08-19802-166288 157758-117502-130106-241536
2106.86 75116-255044-97610-136340 47220-175098
2112.65 172998-250934-28276-261452-19642-309086
2118.43 77726-61932 185574-16528 484720-14180
2124.22-7922-168824 68356-119446 126924-158114
2130.01 252136 357544 384226-104108 241526 1790
2135.79-34422 8924 217804 112636 311590 869186
2141.58 590522 72490 133596 117706 209624 116968
2147.36 239784 80662 490544 513060 472106 84900
2153.15 304210 264504 252718 181726 359974 427154
2158.93 750606 148044 131352 220756 221792 37648
2164.72 286944 168374 182650-5376 306846 33632
2170.50 142120 44390 183410-42642 203108 309626
2176.29 214426 142784 334598 645170 490750 524084
2182.07 660526 198354 633980 377050 353378 777142
2187.86 979756 719672 512566 592290 561702 459084
2193.64 843788 473786 661428 512186 501834 294110
2199.43 658800 758880 684272 333434 360952 534482
2205.22 752500 232788 530450 420284 334778 370650
2211.00 549566 291050 506896 382728 375854 144512
2216.79 232350 156324 261754 242588 298816 80932
2222.57 246270 205948 321236 190076 172756 128250
2228.36 120370 181122 190096 75058 196578 30108
2234.14 52440 35202 181414 21574 123862-31952
2239.93 52824-64496 115706 78066 124252 22046
2245.71 86452 27640 61614 88812 159472 535316
2251.50 648786 220308 190328-27288 59870-124028
2257.28-12200-129638-28344-142430-91874-117238
2263.07-82578-173420-93872-184248-76180-212976
2268.86-73722-189700-53278-92472-36666-165240
2274.64-70816-235264-113516-191630-90104-194154
2280.43 92918-213410-94430-217214-94618-226902
2286.21-112666-222580 66910 159902-25120-121390
2292.00-104252-220462-119454-210094-148538-80716
2297.78 63912-155350-114256-175192-63796-189918
2303.57-25620-205026-61626-188380 10574-116448
2309.35-60982-211566-70028-140666 50588-176474
2315.14-49728-163118-56524-149100-29688-137818
2320.92-21938 60558-67834-85172-35890-96874
2326.71-32340-73234 21922 2692 34966-77576
2332.50 51934-29582-17090-52168-33620-4682
2338.28 122936-95844 8952-77824-6554-83894
2344.07-17682-118232-60096-170004-51224-152114
2349.85 9404-147270-18506-91016 31052-93814
2355.64 85616-53798 167642-7842 124314 6456
2361.42 132498-18332 85228-18232 125872-65470
2367.21 86312-71212 108670-87264 58254-156680
2372.99-9310-177134-30960-163010-49682-131480
2378.78-50390-171942-36412-139074-60682-173064
2384.56-87324-176784-96752-160048-44112-128932
2390.35-47728-99274-69214-204562-103202-179862
2396.14-79014-198550-43524-145222-17222-161906
2401.92-49052-225594-43194-209102-101674-178960
2407.71-93072-55616 157814-97584-39364-226602
2413.49-89310-194352-52478-216560-63176-200634
2419.28 104924-156526-98288-215482-32482-235000
2425.06-31384-210152-35376-127986 54318-248738
2430.85-101598-258970-113382-251236-93642-241562
2436.63-136350-264284-102732-288734-106802-295520
2442.42-131800-309392-80970-228160-100208-150348
2448.20-22946-195046-88948-210394-45992-222248
2453.99-46412-253446-77226-189456 79394-177372
2459.77-72834-203478-37808-254502-7116-184692
2465.56-52510-176384-59702-207932-22320-223690
2471.35-52752-245506-77722-210930-86684-259802
2477.13-67866-235088-73292-281596-78336-270102
2482.92-129208-287998-103896-295626-116218-292204
2488.70-103060-307066-117184-286844-144634-309504
2494.49-122304-295072-129746-340688-130990-328568
2500.27-167098-315520-123770-315740-165212-334066
2506.06-154464-329948-153404-309840-129056-294726
2511.84-135340-313816-124028-334884-158248-356818
2517.63-150854-319808-138060-311810-128864-329212
2523.41-154654-337926-146388-349520-141418-308270
2529.20-138092-317560-128484-322118-156468-336152
2534.99-160138-331552-161620-363400-163796-321432
2540.77-133122-317538-106426-343126-135738-366560
2546.56-148218-341966-163068-330212-148386-355922
2552.34-171038-349384-153696-347762-163984-362582
2558.13-155842-337794-164660-357580-107706-320232
2563.91-128730-320658-81318-252088 55664-271338
2569.70-84120-300046-89142-321214-151442-366228
2575.48-129466-349030-123258-383606-126314-350240
2581.27-145234-353240-127384-349886-117262-366900
2587.05-138818-353780-148898-321322-113914-351800
2592.84-127024-365840-141074-339320-149410-356488
2598.63-128398-344614-147716-355042-123596-347380
2604.41-139084-339034-123962-322702-115254-380300
2610.20-149592-365858-123694-364518-113378-349234
2615.98-99246-365266-134982-364208-91822-350762
2621.77-113944-340526-103436-343010-78434-362582
2627.55-116406-347668-116396-360216-97328-345120
2633.34-121356-346160-119190-396334-97766-376196
2639.12-99866-368852-112306-384760-91938-349352
2644.91-91426-343946-133390-331262-124940-374408
2650.69-110378-369708-120982-355194-117612-364616
2656.48-112930-376072-118952-362176-126606-381968
2662.27-87942-376072-96136-399852-109864-404828
2668.05-125260-413304-104424-391470-150912-388872
2673.84-107230-392024-113938-404634-93282-423458
2679.62-119086-424414-111500-408454-117430-393916
2685.41-119042-399502-114110-422828-148816-428958
2691.19-101894-398728-98982-402970-106960-428518
2696.98-147630-387748-106582-435092-131746-436752
2702.76-103738-424210-95316-438696-113644-439072
2708.55-120230-433118-111250-410990-116906-440672
2714.33-110520-434574-124794-445392-108858-426398
2720.12-111334-451026-96272-427944-63800-450826
2725.91-82512-439302-103334-434200-81658-431216
2731.69-108730-456882-74758-441326-122910-453332
2737.48-89820-453618-91566-454770-101542-476562
2743.26-63220-469054-81296-452496-90162-465288
2749.05-66416-482602-94366-488920-46322-501800
2754.83-61268-488432-68416-476838-64698-493878
2760.62-85358-489496-66172-469634-63308-476432
2766.40-73566-533436-72276-502970-74068-513650
2772.19-41258-507868-89178-507082-51576-526168
2777.97-97784-513024-37088-561626-69460-509710
2783.76-75168-590196-72092-530966-108602-568472
2789.54-64082-612892-63338-568332-50068-583386
2795.33-79252-611376-108578-608764-100894-575214
2801.12-102504-621982-87624-645684-152060-649604
2806.90-57260-676170-141152-686226-160040-684636
2812.69-57766-679564-140598-730002-97080-804342
2818.47-121038-722596-116654-759740-172770-770322
2824.26-177154-847774-114142-817522-111416-782112
2830.04-147098-832400-175680-836618-67966-904668
2835.83-190500-824344-190998-952666-164784-825002
2841.61-204598-908456-15266-917108-154594-883460
2847.40-77672-952998-93802-749722-98734-961584
2853.18 178630-751724-66694-837016 78188-901916
2858.97-66734-838282 106678-968790 16934-750588
2864.76 145402-957828 93326-703032 124450-952356
2870.54 255810-769328 182938-845970 330958-834332
2876.33 238352-787098 280836-867640 310074-855352
2882.11 281734-958162-68876-1437082-82726-1221602
2887.90-9806-1258366 175486-1226958 109730-1097400
2893.68 150542-1187016 239030-1032434 343054-1194786
2899.47 446918-1224840 491948-1272732 538384-1168416
2905.25 604658-1299160 533728-1297554 776180-1257306
2911.04 667932-1199468 971822-1327398 938030-1241030
2916.82 1360076-1272270 1280908-1031606 1686692-1104394
2922.61 1929866-695510 2436466-558020 2752410-255766
2928.40 3492268 399890 4098852 792762 5279438 1470990
2934.18 5957824 2326316 7685584 2805480 9238326 5012346
2939.97 10414580 4700946 13889030 8048040 13260490 8346062
2945.75 19765710 11567050 16467340 13943620 25605570 14736970
2951.54 21080990 20754890 30667420 17564430 26944080 27285350
2957.32 34346760 20907270 32971670 32457510 34783670 21629160
2963.11 39670490 30682700 37447920 25899120 39537720 27360350
2968.89 36428510 25863490 34126790 22417080 31807320 21680050
2974.68 24760950 16957090 23026090 15656890 15733010 18025100
2980.46 18110840 15260770 5978698 8146228 6257388 17740530
2986.25 57753090 254500900 48694340-1804816 10334350 2651642
2992.04 8415142 10116250 12723400 12230280 16538080 22266690
2997.82 20627620 24290740 28202190 32995900 30436110 37450060
3003.61 36537120 41220360 40420360 46447770 38467710 48351640
3009.39 49529640 45757380 38442720 53611760 44904610 38106060
3015.18 42839730 51897840 35196280 39676310 45486870 41416260
3020.96 28380540 38688160 34051930 32840060 28216860 33054900
3026.75 34426460 33787000 23158930 28393370 20174340 24578690
3032.53 16335610 22357070 20808800 30149000 14825550 22470160
3038.32 15921130 21053550 12727650 22949740 13550870 38985130
3044.10 28710360 17370950 20010480 18111330 17558630 22699230
3049.89 20821070 17700280 46162330 14323900 24457650 14567080
3055.67 28074580 13958010 31626570 14225210 77663660 49490760
3061.46 16410940 31579500 23045790 25172840 28860370 26659630
3067.25 44038050 69493660 31796840 33014660 25329110 34146140
3073.03 32741150 46749050 42243790 101721800 54410450 38000770
3078.82 36147720 38627760 38264140 37438880 37081040 56243550
3084.60 42761960 40000640 43208510 56975460 41778730 35160600
3090.39 35046050 42685070 44306740 74519530 45458040 20332290
3096.17 36544270 20607910 46382940 41065190 39454540 24376410
3101.96 27480450 21317100 27178060 17885200 19971600 17142390
3107.74 31585120 33392630 38133180 25228720 32178490 25249150
3113.53 54612640 54684640 32090940 38515990 37072190 68126020
3119.31 54284700 48391960 54013410 49947410 72091380 82160980
3125.10 40772330 53344700 39768750 44063820 50773240 47559480
3130.89 95360100 50106400 38757740 42875520 32088430 42005120
3136.67 36715870 74796580 107884300 36380180 25190220 35649960
3142.46 28311000 27345030 29673690 44432860 53616120 29334620
3148.24 28598540 27991620 21385760 27779550 27115180 49306590
3154.03 58290460 14774420 16722640 19312710 22371840 18911650
3159.81 20451210 34211560 28829420 12397840 15960230 15304000
3165.60 11493670 21108130 23564390 40109510 23783310 11117000
3171.38 17727160 12370460 14464610 12342650 19926540 21735000
3177.17 14756440 13608640 13151900 11708550 13274640 10826410
3182.95 19385100 11291920 11730240 13766810 11357570 11709680
3188.74 10625510 11953320 12451370 9265914 8160524 7873804
3194.53 10199960 8624516 9336212 11046790 8306794 6289194
3200.31 6047834 5995870 4785090 7285152 8698626 6658050
3206.10 6655486 5402112 5929382 4527950 5248216 4146302
3211.88 5307456 4803794 4438520 3882380 3960230 3150300
3217.67 3460094 2786984 2934736 1823368 4005462 2636774
3223.45 3275180 2321920 2836402 1961614 2185270 1627478
3229.24 1700044 1743522 2020986 1371574 1639218 1010060
3235.02 1393478 727882 1179378 469746 1374006 952584
3240.81 1135816 667618 902532 542206 691194 347780
3246.59 568648 321114 616382 232998 530086 117694
3252.38 405312 51176 336122-57172 374908 28540
3258.17 263962-25352 220650-60474 145748-155180
3263.95 58022-100390 90896-143220 77952-185342
3269.74 4280-250298 53828-240854 43688-196206
3275.52-16552-259304-7404-277202-26428-290786
3281.31-60868-298460-39572-272254-54462-281686
3287.09-94428-285524-36802-288322-93536-275624
3292.88-56510-269710-38246-308112-106244-241806
3298.66-79026-309194-123296-309264-98374-308782
3304.45-70708-260914-112520-306828-132720-309786
3310.23-85306-342826-71230-292006-99812-337246
3316.02-139116-311752-173048-344460-84284-316076
3321.80-107860-304504-69066-310578-140790-282592
3327.59-127242-303470-148666-308962-154194-285250
3333.38-188224-271880-133092-285172-129662-266810
3339.16-122890-294056-100866-283868-140370-319432
3344.95-164116-300416-178948-284590-65884-267558
3350.73-74574-291042-133592-306530-190614-330028
3356.52-141186-274080-128172-298996-125242-304778
3362.30-85454-325976-136480-308136-123484-308000
3368.09-52780-289076-137882-276142-128716-273674
3373.87-144348-372272-154570-270138-162768-306492
3379.66-92074-271620-131890-318828-119426-301970
3385.44-89182-291364-113760-290714-117056-362494
3391.23-116916-366160-107268-299060-177136-326916
3397.02-97406-318202-83280-321500-178016-336730
3402.80-192358-318132-226738-363012-167530-310612
3408.59-123236-329774-214086-350054-180032-334284
3414.37-155930-324530-195260-295668-141550-316538
3420.16-220152-293622-216660-381990-215830-289656
3425.94-204884-319408-166816-359288-155882-332600
3431.73-118888-305216-176366-361090-172180-323448
3437.51-193216-379560-149870-380064-238546-315060
3443.30-153690-269466-119750-324274-230132-319490
3449.08-200124-372042-225144-288722-213252-353350
3454.87-190584-299038-187224-360616-232938-340088
3460.66-144118-361420-160058-332702-141790-304234
3466.44-106096-316540-185694-347720-131704-306046
3472.23-142484-350688-109718-310548-162962-354908
3478.01-103052-350240-67294-300644-86700-308410
3483.80-144674-304264-147270-273804-179276-301292
3489.58-148444-318400-185664-305702-195936-311800
3495.37-209814-312796-157804-322656-158730-318376
3501.15-145454-193526 13306-195980-191756-312930
3506.94-231252-311220-200080-279674-145576-298652
3512.72-166306-312316-153558-312614-113304-301994
3518.51-121440-303574-137286-241134-115218-292688
3524.30-41904-247226-149434-284528-102384-284776
3530.08-148038-328018-105158-258730-92062-230718
3535.87-116130-281316-144984-290670-142566-320860
3541.65-152726-331566-137078-277850-140960-321278
3547.44-218612-326336-167258-300674-205672-314552
3553.22-175196-324852-181206-286860-180910-327714
3559.01-172250-365216-181298-338082-184584-355110
3564.79-192634-366608-152740-372462-148332-338926
3570.58-173586-343436-181468-315892-167828-303762
3576.36-190826-323870-188062-306020-176728-328546
3582.15-116828-311970-109990-321198-209832-367512
3587.94-180816-272770-182012-339726-155182-394872
3593.72-146104-360538-189314-356090-139398-308236
3599.51-193788-349230-149398-320074-170760-332896
3605.29-163754-301650-184836-379636-134654-308094
3611.08-195494-343336-159308-288738-159036-347480
3616.86-168954-321644-189102-326126-158712-283354
3622.65-145058-338840-145196-304466-156680-350224
3628.43-247498-307280-154738-302420-154490-331300
3634.22-139318-346452-153884-331052-157446-373908
3640.00-156016-334936-121472-312068-138248-325884
3645.79-183602-291902-165816-370946-168732-359742
3651.57-146316-354856-215862-365126-188308-322042
3657.36-197354-348392-166866-314252-131790-320086
3663.15-149930-350098-118322-310962-107156-386126
3668.93-184624-366610-107170-351564-150420-380986
3674.72-167042-351104-157552-362042-157746-276172
3680.50-213228-363300-135484-340928-127528-331904
3686.29-236674-407866-205100-335890-288826-310224
3692.07-183640-408800-171380-373842-237634-323000
3697.86-157040-442256-241884-335034-189204-498362
3703.64-232004-255760-188000-439466-250528-371588
3709.43-239532-323682-386098-325944-93460-368130
3715.21-369968-291136-131812-405950-332538-385120
3721.00-195434-447336-177680-414428-143098-407534
3726.79-195942-573196-160892-253004-208204-566500
3732.57-22298-488970-303122-625590 4546-394716
3738.36-227760-454674-68770-415838-206536-605886
3744.14-158390-352648-242658-395180-176912-408010
3749.93-166182-534550-84302-320790-226860-473570
3755.71-63476-309678-223668-441186-81598-298136
3761.50-219394-356236-69304-368544-173244-324802
3767.28-43854-279574-94686-312236-84026-348362
3773.07-202180-606502-410906-976466-29466 266166
3778.85-41180-276914-166766-339796-165224-317732
3784.64-116384-310572-140252-348448-73442-190956
3790.43-174818-357758-10802-267784-256312-210310
3796.21 33836-334110-238722-224482-60886-500964
3802.00-95372-129814-40976-469802-101460-74334
3807.78-130536-447340 29710-174830-278184-378070
3813.57 81718-349838-266780-265722 160312-392886
3819.35-258568-220034-79440-449434-127836-138906
3825.14-169518-362094 101832-271896-258726-343270
3830.92 67866-478764-145842-200472-126432-456534
3836.71-129010-232172-262666-351258 26464-456690
3842.49-178614-177170-19628-460786 59522-156646
3848.28-245568-356478 109534-402184-136434-302778
3854.07-51818-405252 105336-122290-140560-279688
3859.85 85734-288674-59402-169952-2704-313368
3865.64 4474-230708-9674-290028 4374-202652
3871.42-10494-226914-33660-227560-36360-270536
3877.21 45384-163378-12236-259076-32704-263838
3882.99-16774-259592-45286-324134 10934-175928
3888.78-10730-266066-42578-228406-11180-256850
3894.56-50612-288554-46408-193704-82310-236404
3900.35-59090-316612-61780-315312-61728-279700
3906.13 13912-288464-66518-257118 24760-278340
3911.92-31348-307152-61020-280804-30112-243190
3917.70 80286-192342 187864-122398-360-207478
3923.49 4112-254574-27852-246782-75336-246138
3929.28-20370-307510-4862-317918-40682-305588
3935.06-43932-277350-57658-264056-83498-228372
3940.85-69686-292514-67484-320234-14368-274118
3946.63-37770-303646-123734-329400-65156-316756
3952.42 59330-240974-54054-317506-73070-278816
3958.20 32412-226672-9236-325090 3816-324108
3963.99 5950-191982 44200-262890-974-337658
3969.77 33026-219828 68714-288510-15570
##END=
