##TITLE=2,3-dimethylbutane
##JCAMP-DX=4.24
##DATA TYPE=INFRARED SPECTRUM
##ORIGIN=NIST Mass Spectrometry Data Center
##OWNER=NIST Standard Reference Data Program
Collection (C) 2009 copyright by the U.S. Secretary of Commerce
on behalf of the United States of America. All rights reserved.
##CAS REGISTRY NO=79-29-8
##MOLFORM=C 6 H 14
##$NIST SOURCE=MSDC-IR
##SPECTROMETER/DATA SYSTEM=HP-GC/MS/IRD
##STATE=gas
##XUNITS=1/CM
##YUNITS=ABSORBANCE
##XFACTOR=1.0
##YFACTOR=0.000007800
##DELTAX=4.0
##FIRSTX=550.0
##LASTX=3846.0
##FIRSTY=0.000406
##MAXX=3846
##MINX=550
##MAXY=0.078
##MINY=0
##NPOINTS=825
##XYDATA=(X++(Y..Y))
550.0 52 48 50 45 41 31 35 43 39 45
590.0 44 27 14 19 32 30 17 16 22 23
630.0 21 17 23 28 27 33 35 23 19 26
670.0 29 33 26 15 20 22 17 18 26 29
710.0 29 29 33 38 33 26 23 29 30 32
750.0 29 25 24 24 23 20 19 19 17 14
790.0 14 9 4 14 21 19 21 22 29 29
830.0 22 25 28 36 40 43 53 56 55 56
870.0 56 56 47 34 28 28 34 37 36 42
910.0 45 43 48 54 54 53 52 48 43 42
950.0 41 37 38 41 41 46 53 66 71 70
990.0 80 89 91 92 90 87 90 99 109 130
1030.0 156 170 176 173 166 160 142 118 106 96
1070.0 92 87 80 72 62 62 77 104 143 196
1110.0 262 316 358 396 417 413 404 385 340 293
1150.0 257 219 186 160 136 105 78 63 53 50
1190.0 46 42 39 40 39 36 38 43 44 42
1230.0 45 51 53 50 56 60 66 80 93 105
1270.0 120 136 151 165 174 185 187 179 167 158
1310.0 145 133 124 114 106 109 123 143 174 222
1350.0 300 397 520 684 907 1114 1222 1284 1378 1377
1390.0 1193 1012 797 558 393 296 248 223 221 246
1430.0 295 362 452 563 681 800 903 1010 1140 1218
1470.0 1144 1000 892 788 665 539 422 320 242 187
1510.0 147 121 102 88 78 71 68 65 57 53
1550.0 52 51 53 52 47 43 43 39 39 38
1590.0 37 39 38 39 41 41 45 46 44 45
1630.0 46 46 48 50 49 48 46 44 45 42
1670.0 41 41 40 41 37 38 36 30 29 30
1710.0 28 26 24 20 17 15 15 19 19 15
1750.0 12 12 13 14 14 17 17 14 13 11
1790.0 14 17 14 12 13 13 12 10 10 13
1830.0 15 14 11 8 9 9 11 10 8 11
1870.0 13 11 15 17 14 13 13 11 8 10
1910.0 10 11 8 3 4 7 7 4 4 6
1950.0 5 5 3 1 3 5 5 4 5 4
1990.0 3 4 5 6 7 5 6 5 7 7
2030.0 6 8 10 8 6 6 7 7 4 2
2070.0 2 4 5 7 9 6 4 5 3 4
2110.0 7 9 7 5 2 4 4 2 3 3
2150.0 1 0 2 3 2 2 3 5 5 5
2190.0 7 7 6 4 8 11 13 12 12 12
2230.0 13 14 14 13 14 15 13 10 9 12
2270.0 16 12 11 12 13 15 15 16 17 17
2310.0 16 17 17 15 15 16 15 20 20 19
2350.0 19 20 23 25 26 25 27 31 29 26
2390.0 29 33 30 26 27 29 28 26 26 26
2430.0 25 26 26 24 25 24 26 25 23 24
2470.0 26 26 27 27 23 23 24 23 24 28
2510.0 28 25 26 26 27 28 27 29 31 32
2550.0 33 38 41 43 53 59 64 73 85 97
2590.0 103 105 106 107 108 105 104 105 99 93
2630.0 91 88 85 83 81 83 80 85 89 92
2670.0 95 98 102 100 96 93 91 94 103 110
2710.0 115 128 142 151 160 169 174 177 178 178
2750.0 176 174 172 171 175 179 185 189 193 196
2790.0 203 213 226 241 258 279 298 315 333 357
2830.0 385 420 474 550 661 832 1090 1455 1920 2447
2870.0 2982 3515 4000 4326 4466 4462 4293 4033 3797 3600
2910.0 3466 3411 3458 3608 3831 4111 4455 4890 5460 6173
2950.0 6995 7805 8675 9722 10000 9292 8663 7837 6456 5031
2990.0 3813 2788 1991 1426 1038 783 621 512 443 402
3030.0 374 352 332 321 311 297 286 276 261 246
3070.0 237 229 223 218 214 212 204 201 195 191
3110.0 187 186 181 184 186 181 183 182 181 183
3150.0 184 186 189 190 185 180 175 172 168 159
3190.0 147 145 137 125 117 110 100 92 83 71
3230.0 67 61 58 59 51 42 39 39 39 36
3270.0 33 33 36 32 34 35 34 41 38 33
3310.0 34 37 36 31 24 25 31 27 26 34
3350.0 36 35 36 33 34 35 34 35 33 31
3390.0 32 32 24 20 18 18 22 24 25 20
3430.0 24 25 17 21 23 17 19 23 17 16
3470.0 22 20 20 22 19 16 19 20 17 19
3510.0 20 19 17 21 16 10 16 14 16 17
3550.0 12 9 11 14 11 6 5 14 19 15
3590.0 13 14 18 16 13 16 16 16 16 14
3630.0 16 16 14 14 13 12 13 17 21 22
3670.0 18 19 22 17 16 19 19 15 17 24
3710.0 23 21 22 20 18 19 19 20 21 20
3750.0 18 19 21 23 23 23 26 29 31 34
3790.0 36 40 41 37 36 36 38 38 41 46
3830.0 44 42 42 41 40
##END=
