##TITLE=2-Bromo-3-chloro-1-propene
##JCAMP-DX=4.24
##DATA TYPE=INFRARED SPECTRUM
##ORIGIN=EPA-IR VAPOR PHASE LIBRARY
##OWNER=SRD/NIST
Collection (C) 2009 copyright by the U.S. Secretary of Commerce
on behalf of the United States of America. All rights reserved.
##CAS REGISTRY NO=16400-63-8
##MOLFORM=C 3 H 4 Br Cl
##$NIST SOURCE=MSDC-IR
##STATE=gas
##XUNITS=1/CM
##YUNITS=ABSORBANCE
##XFACTOR=1.
##YFACTOR=0.001
##DELTAX=1.92898
##FIRSTX=549.8
##LASTX=4000.7
##FIRSTY=12.474
##MAXX=4000.7
##MINX=549.759
##MAXY=0.054454
##MINY=0
##NPOINTS=1790
##XYDATA=(X++(Y..Y))
549.759 12.474 12.804 13.004 13.064 12.054 11.234 11.004 11.364 11.764 11.234
569.049 10.044 9.024 8.594 7.434 5.764 5.544 5.744 5.384 4.844 4.694
588.339 4.934 4.854 4.424 4.784 5.364 5.284 6.024 7.104 7.494 8.044
607.628 9.604 11.114 13.024 16.454 19.964 23.374 27.184 30.364 32.544 34.044
626.918 34.494 34.244 34.064 33.784 32.454 29.214 23.884 17.134 11.364 8.164
646.208 6.914 6.904 7.244 7.654 8.164 8.514 9.124 9.564 9.454 9.414
665.498 9.914 9.804 8.594 7.674 7.414 7.184 6.074 4.894 4.354 3.554
684.787 3.184 3.244 3.044 3.044 2.724 2.594 2.624 2.414 2.454 2.584
704.077 2.484 2.504 3.224 3.654 3.614 3.944 4.494 5.424 5.904 5.924
723.367 6.664 7.964 9.224 10.024 11.484 13.724 16.504 19.604 23.174 27.104
742.657 31.154 35.364 38.784 41.264 42.854 43.744 44.124 43.674 42.024 38.744
761.947 34.874 30.414 24.934 19.154 13.994 10.184 7.444 5.564 4.774 4.234
781.236 3.884 3.514 2.784 2.574 2.434 1.894 1.624 1.914 1.564 1.0541
800.526 1.434 1.664 1.2738 1.3225 1.634 1.544 1.2432 1.2956 1.924 2.164
819.816 2.324 2.184 1.634 1.644 1.754 1.764 2.014 1.684 1.2533 1.764
839.106 1.934 1.634 1.494 1.504 2.014 2.154 1.544 1.474 1.924 2.184
858.395 2.024 2.264 2.914 3.294 4.334 5.304 6.334 7.924 9.424 11.194
877.685 13.424 16.134 18.714 21.294 24.234 27.544 30.424 32.974 35.384 38.804
896.975 42.404 48.484 54.454 49.774 42.794 40.504 39.004 38.014 36.494 34.114
916.265 31.694 28.884 26.254 23.504 20.224 17.334 14.894 13.004 11.514 10.264
935.555 9.074 8.054 7.584 6.954 5.894 5.604 5.404 4.704 4.304 3.774
954.844 3.034 2.904 2.614 2.334 2.614 2.484 2.354 2.154 1.934 1.844
974.134 1.734 1.744 1.744 1.584 1.594 1.704 1.494 1.424 1.494 1.3962
993.424 1.434 1.454 1.494 1.534 1.3523 1.2165 1.3565 1.594 1.1822 0.9311
1012.714 1.1309 1.474 1.414 1.2416 1.554 1.644 1.694 1.1709 1.0741 1.3239
1032.003 1.3179 1.584 1.694 1.614 1.564 1.964 1.974 1.0606 1.2923 2.634
1051.293 2.734 2.494 3.274 3.774 3.334 3.174 3.134 3.044 3.214 3.484
1070.583 3.664 3.684 3.634 3.394 3.134 3.864 5.094 5.054 4.404 5.294
1089.873 6.444 7.154 8.874 10.094 11.764 14.894 16.994 20.744 24.764 26.264
1109.163 30.104 33.494 34.844 35.744 36.124 37.254 37.704 35.704 32.864 29.694
1128.452 26.484 23.084 20.444 18.374 15.624 13.784 12.024 10.184 9.014 7.984
1147.742 7.044 5.664 4.194 3.984 4.294 4.014 3.634 4.164 4.544 4.404
1167.032 4.534 4.844 4.834 5.244 5.414 6.014 6.404 6.984 7.904 7.684
1186.322 8.414 9.474 11.694 14.214 15.194 17.064 19.304 20.494 21.384 21.524
1205.611 20.974 20.954 20.114 19.754 20.974 20.014 18.064 15.754 12.854 10.274
1224.901 8.514 7.794 7.924 7.264 5.904 5.354 5.274 5.804 6.534 6.834
1244.191 7.224 7.834 8.714 10.324 11.764 12.594 14.124 15.744 16.544 17.164
1263.481 16.844 16.244 16.034 15.664 15.604 15.544 15.064 13.724 11.974 10.824
1282.771 10.114 9.274 8.074 7.124 6.484 5.794 5.254 5.014 4.724 4.214
1302.060 3.694 3.214 2.964 2.884 3.064 3.184 2.914 2.694 2.654 2.814
1321.350 2.964 2.844 2.644 2.594 2.714 2.724 2.654 2.704 2.694 2.714
1340.640 2.794 2.694 2.644 2.614 2.684 2.914 3.034 3.054 3.274 3.584
1359.930 3.794 4.004 4.254 4.684 5.244 5.784 6.234 6.684 6.984 7.314
1379.219 7.634 7.834 8.294 8.724 8.984 9.354 9.624 9.794 9.974 10.034
1398.509 9.944 9.814 9.894 10.234 10.754 10.794 10.594 10.514 10.274 10.064
1417.799 9.914 9.924 9.984 10.134 10.394 10.494 10.404 10.054 9.584 9.394
1437.089 9.454 9.694 9.744 8.994 8.124 7.514 6.784 5.864 4.984 4.404
1456.378 3.824 3.224 2.914 2.674 2.294 2.014 1.844 1.634 1.344 1.1406
1475.668 1.0689 1.0648 1.1542 1.1775 1.0922 0.8831 0.9407 0.9776 0.8262 0.9309
1494.958 0.9052 0.7463 0.8544 1.003 1.0517 1.1196 1.0234 1.053 1.2269 1.1181
1514.248 0.9048 0.7267 0.616 0.6485 0.7761 0.8896 0.9038 0.7844 0.8389 0.9085
1533.538 0.835 0.9431 1.0703 1.0822 1.1623 1.1583 1.0561 1.1238 1.3041 1.614
1552.827 1.684 1.614 1.694 1.834 2.114 2.134 2.134 2.104 1.954 1.974
1572.117 2.054 2.154 2.254 2.274 2.244 2.244 2.494 2.864 3.064 3.324
1591.407 3.604 4.094 4.954 5.724 6.384 7.354 8.454 9.834 11.434 12.994
1610.697 14.684 16.684 18.674 20.564 22.194 23.454 24.494 25.354 26.054 26.654
1629.986 27.054 27.534 27.644 26.844 25.444 23.644 21.634 19.674 17.754 15.964
1649.276 14.724 13.654 12.314 10.724 9.084 7.584 6.364 5.374 4.604 4.124
1668.566 3.454 2.984 2.634 2.304 2.064 1.794 1.764 1.684 1.654 1.514
1687.856 1.2359 1.3372 1.3889 1.2131 1.3735 1.484 1.3351 1.1762 0.9937 0.9559
1707.146 1.0245 0.947 0.9243 0.8831 0.8483 0.9563 1.0171 1.0773 1.0149 0.8193
1726.435 0.9005 0.8974 0.8812 0.8754 0.6503 0.7268 0.8862 0.9406 1.0478 1.065
1745.725 0.92 0.8326 0.8655 0.9251 0.8548 0.8417 0.9661 0.9724 0.9518 1.0429
1765.015 1.1416 1.1775 1.2885 1.444 1.4135 1.414 1.444 1.534 1.834 1.984
1784.305 2.094 2.484 2.714 2.844 3.114 3.294 3.424 3.664 3.924 3.934
1803.594 3.864 4.004 4.144 4.194 4.124 3.854 3.624 3.404 3.164 2.844
1822.884 2.464 2.224 2.054 1.834 1.714 1.604 1.365 1.1975 0.9794 0.8879
1842.174 0.959 0.9742 0.983 0.9511 0.9305 0.8745 0.8074 0.7743 0.7532 0.7302
1861.464 0.7023 0.7796 0.8306 0.7439 0.7181 0.8029 0.8083 0.7109 0.5882 0.6133
1880.754 0.6025 0.6017 0.6909 0.6118 0.5868 0.6015 0.48844 0.45934 0.5956 0.6169
1900.043 0.6496 0.6354 0.6524 0.6086 0.603 0.73 0.6894 0.5551 0.47576 0.5154
1919.333 0.49692 0.42905 0.45664 0.554 0.6578 0.7084 0.7093 0.6382 0.6423 0.8146
1938.623 0.7435 0.47219 0.3502 0.3377 0.386 0.47564 0.5192 0.6368 0.63 0.5177
1957.913 0.544 0.4001 0.416483 0.5724 0.5521 0.6873 0.6593 0.5739 0.5669 0.5951
1977.202 0.6069 0.5178 0.49917 0.5291 0.5876 0.5408 0.43444 0.51218 0.5747 0.5819
1996.492 0.5381 0.5334 0.5941 0.579 0.5956 0.50809 0.634 0.7426 0.5389 0.5396
2015.782 0.6574 0.6056 0.5666 0.5754 0.5601 0.51227 0.5906 0.7054 0.6918 0.5799
2035.072 0.5433 0.636 0.6289 0.45713 0.554 0.6358 0.42502 0.5254 0.5722 0.51272
2054.362 0.5497 0.5371 0.5322 0.5746 0.5961 0.50484 0.46626 0.44978 0.44554 0.47571
2073.651 0.416781 0.3829 0.47393 0.5227 0.45469 0.5324 0.6425 0.47716 0.44719 0.5893
2092.941 0.5474 0.5294 0.6036 0.5662 0.50185 0.5306 0.5653 0.6466 0.628 0.5903
2112.231 0.7276 0.6609 0.5578 0.6572 0.6259 0.5493 0.48933 0.5201 0.49009 0.3786
2131.521 0.44529 0.40902 0.242 0.3216 0.3861 0.3696 0.4036 0.40431 0.5749 0.7716
2150.810 0.685 0.5434 0.5353 0.5209 0.3806 0.3849 0.3896 0.3286 0.5551 0.5552
2170.100 0.50678 0.5303 0.422261 0.5786 0.6842 0.5332 0.5153 0.6062 0.47743 0.3355
2189.390 0.46384 0.5465 0.6645 0.8681 0.8268 0.6209 0.5154 0.541 0.50932 0.48
2208.680 0.47913 0.5811 0.6423 0.6434 0.5768 0.45556 0.3796 0.371 0.3709 0.40809
2227.970 0.6302 0.5819 0.43883 0.51265 0.44885 0.3335 0.276 0.3919 0.5366 0.5323
2247.259 0.47049 0.44717 0.5321 0.3873 0.396 0.5771 0.5295 0.49048 0.5475 0.49246
2266.549 0.3689 0.46159 0.49127 0.37 0.3335 0.308 0.3479 0.3696 0.322 0.3173
2285.839 0.3323 0.43326 0.5628 0.48207 0.3914 0.5307 0.5478 0.41615 0.47222 0.6538
2305.129 0.6822 0.5672 0.47479 0.49474 0.69 0.7569 0.7047 0.7571 0.7247 0.7507
2324.418 0.7181 0.6554 0.6735 0.7082 0.8026 0.9233 0.9679 0.955 1.0037 0.9409
2343.708 0.8627 0.7325 0.6682 0.7942 0.8647 0.8813 0.8671 0.8221 0.7183 0.6537
2362.998 0.6708 0.4869 0.3753 0.42584 0.43822 0.3871 0.3932 0.51071 0.43044 0.274
2382.288 0.29 0.44724 0.4 0.3874 0.51368 0.44067 0.43417 0.51104 0.49225 0.556
2401.578 0.5828 0.6035 0.7099 0.6177 0.4024 0.3541 0.40731 0.5767 0.6492 0.46723
2420.867 0.5435 0.6154 0.5434 0.5482 0.45971 0.3745 0.3931 0.271 0.287 0.4203
2440.157 0.3964 0.31 0.3612 0.49675 0.5617 0.5143 0.40417 0.49966 0.49075 0.417897
2459.447 0.4803 0.5919 0.5926 0.43262 0.49887 0.6175 0.4772 0.3912 0.5847 0.548
2478.737 0.3438 0.44771 0.46925 0.3402 0.3652 0.5194 0.6152 0.44496 0.169 0.266
2498.026 0.44556 0.5479 0.6036 0.51018 0.3975 0.222 0.348 0.47761 0.3531 0.3918
2517.316 0.419184 0.3928 0.3696 0.3987 0.50379 0.49965 0.47776 0.3944 0.219 0.301
2536.606 0.5315 0.6503 0.599 0.3796 0.265 0.3475 0.5571 0.5293 0.46181 0.5343
2555.896 0.5548 0.48214 0.43349 0.47328 0.5591 0.5418 0.43528 0.305 0.248 0.3237
2575.186 0.3342 0.3906 0.3679 0.44164 0.47724 0.3825 0.44366 0.5732 0.6966 0.6159
2594.475 0.553 0.6158 0.6213 0.45847 0.259 0.222 0.202 0.214 0.202 0.271
2613.765 0.47684 0.49743 0.42756 0.45031 0.5322 0.5223 0.5384 0.49659 0.3874 0.5607
2633.055 0.43744 0.305 0.526 0.5654 0.45368 0.5483 0.46541 0.3154 0.3895 0.5259
2652.345 0.6078 0.5848 0.48497 0.42902 0.49796 0.5863 0.676 0.5989 0.6897 0.6134
2671.634 0.46411 0.5636 0.5253 0.42442 0.3911 0.47198 0.49433 0.6192 0.733 0.6987
2690.924 0.8329 0.8262 0.5756 0.45432 0.6381 0.6595 0.43955 0.43243 0.5709 0.6405
2710.214 0.5949 0.6688 0.7593 0.6476 0.5495 0.5598 0.5422 0.5793 0.6384 0.7296
2729.504 0.6712 0.5974 0.5904 0.5578 0.6524 0.5471 0.48492 0.523 0.49148 0.5793
2748.794 0.5825 0.49475 0.3838 0.338 0.45436 0.5797 0.6348 0.3832 0.3931 0.5859
2768.083 0.6804 0.6185 0.4019 0.3976 0.41054 0.3934 0.47425 0.45832 0.257 0.279
2787.373 0.40955 0.45506 0.3996 0.271 0.3374 0.5037 0.6187 0.6996 0.5534 0.5799
2806.663 0.537 0.228 0.311 0.6292 0.6651 0.5463 0.5462 0.46815 0.5426 0.8264
2825.953 0.9236 1.062 1.1511 0.9124 0.8171 0.8137 0.8721 0.9326 0.9402 1.1865
2845.242 1.3667 1.534 1.594 1.474 1.3514 1.2646 1.2903 1.2967 1.2993 1.424
2864.532 1.3839 1.1082 1.0255 1.1023 1.2124 1.1118 1.0249 0.8821 0.7301 0.7238
2883.822 0.7378 0.7855 0.9379 1.001 0.8364 0.6135 0.5182 0.628 0.5948 0.7013
2903.112 0.6697 0.6679 0.9425 0.8972 0.7369 0.5203 0.6127 0.694 0.7121 0.8697
2922.401 0.9128 1.0017 1.2111 1.2792 1.2197 1.484 1.884 2.034 1.984 2.234
2941.691 2.824 3.284 3.854 4.764 5.794 6.634 7.024 7.504 8.084 8.314
2960.981 8.574 9.224 9.784 9.494 8.654 7.954 7.234 6.484 6.024 5.554
2980.271 4.944 4.484 4.014 3.424 3.124 3.064 2.794 2.504 2.434 2.234
2999.561 2.314 2.654 2.564 2.424 2.294 2.354 2.204 2.174 2.424 2.434
3018.850 2.514 2.324 2.334 2.174 1.834 1.984 1.964 1.724 1.524 1.3817
3038.140 1.424 1.3352 1.2292 1.2867 1.464 1.484 1.2517 0.9773 0.7742 0.8209
3057.430 0.9755 0.9754 0.5762 0.49916 0.8403 0.8552 0.7325 0.652 0.48411 0.5534
3076.720 0.7836 0.8135 0.5457 0.3728 0.3877 0.41458 0.6822 0.8003 0.6436 0.7403
3096.009 0.8662 0.8748 0.9936 1.0038 1.1369 1.514 1.714 1.514 1.2216 1.3555
3115.299 1.424 1.3813 1.3339 1.0475 1.1064 1.1718 1.0023 0.8453 0.6053 0.7542
3134.589 0.8159 0.50918 0.5782 0.7462 0.5271 0.3604 0.48192 0.42444 0.295 0.47564
3153.879 0.48694 0.3266 0.313 0.42781 0.5612 0.3785 0.48334 0.7619 0.6663 0.696
3173.169 0.50866 0.175 0.3167 0.3971 0.173 0.228 0.3525 0.3888 0.539 0.6346
3192.458 0.6907 0.50434 0.5506 0.6666 0.3253 0.159 0.3179 0.3235 0.3811 0.5769
3211.748 0.5357 0.40584 0.3809 0.249 0.154 0.31 0.3874 0.195 0.3849 0.5172
3231.038 0.43442 0.419635 0.191 0.3527 0.8448 0.8529 0.6592 0.5755 0.6253 0.9842
3250.328 0.9843 0.7814 0.46675 0.47382 0.50457 0.5242 0.9431 1.0637 0.893 0.43861
3269.617 0.319 0.48001 0.658 0.7838 0.6359 0.5355 0.6059 0.536 0.3199 0.276
3288.907 0.294 0.3632 0.5412 0.3634 0.3303 0.5723 0.3562 0.167 0.3563 0.5876
3308.197 0.5895 0.7438 0.8676 0.743 0.6579 0.6451 0.7878 0.8277 0.8665 0.9708
3327.487 0.6811 0.5271 0.6079 0.6393 0.5942 0.4365 0.284 0.42658 0.6711 0.632
3346.777 0.3901 0.3165 0.5266 0.4256 0.222 0.41136 0.6286 0.48779 0.51032 0.7491
3366.066 0.6349 0.47346 0.3658 0.5142 0.5542 0.3829 0.47742 0.49722 0.47213 0.556
3385.356 0.4789 0.187 0 0.019 0.293 0.43287 0.5917 0.8209 0.6207 0.3581
3404.646 0.15 0.044 0.269 0.737 0.853 0.3907 0.195 0.6076 0.7269 0.6043
3423.936 0.7769 0.8593 0.5408 0.293 0.5165 0.50154 0.40602 0.6154 0.7421 0.50877
3443.225 0.188 0.3726 0.6827 0.6177 0.3495 0.3832 0.3847 0.43057 0.6092 0.5816
3462.515 0.6961 0.7488 0.6217 0.6957 0.7282 0.6136 0.7757 0.849 0.854 0.7027
3481.805 0.4752 0.50647 0.4296 0.054 0.098 0.5324 0.7206 0.6572 0.45924 0.3867
3501.095 0.49944 0.5926 0.5777 0.559 0.45097 0.5768 0.44755 0.3734 0.6481 0.6091
3520.385 0.5206 0.6142 0.7537 0.7891 0.7991 0.50765 0.44136 0.765 0.8741 0.802
3539.674 0.6604 0.6188 0.6866 0.665 0.43358 0.49247 0.45302 0.114 0.182 0.422104
3558.964 0.42721 0.3901 0.48649 0.6762 0.7796 0.6108 0.7264 0.759 0.307 0.272
3578.254 0.416743 0.40436 0.6241 0.5493 0.49567 0.3282 0.048 0.271 0.6066 0.8793
3597.544 0.8213 0.6249 0.565 0.7137 0.6808 0.44503 0.229 0.129 0.339 0.5252
3616.833 0.6213 0.6623 0.3438 0.143 0.3623 0.5303 0.6182 0.3897 0.211 0.3885
3636.123 0.7669 0.8615 0.6017 0.5392 0.4431 0.4454 0.5282 0.5649 0.5703 0.6209
3655.413 0.6455 0.48189 0.3744 0.253 0.45655 0.7609 0.6182 0.3811 0.314 0.3668
3674.703 0.269 0.48202 0.6505 0.5787 0.43721 0.48162 0.6829 0.5994 0.6767 0.46968
3693.993 0.417421 0.5817 0.431 0.314 0.50116 0.5485 0.5597 0.7744 0.50213 0.301
3713.282 0.3339 0.191 0.165 0.264 0.3318 0.308 0.3804 0.45892 0.46564 0.5787
3732.572 0.3512 0.5175 0.945 0.8221 0.40465 0.027 0.3624 0.6488 0.43866 0.4043
3751.862 0.423316 0.312 0.21 0.268 0.43908 0.3654 0.4816 0.5394 0.23 0.263
3771.152 0.5773 0.45295 0.07 0.096 0.274 0.25 0.182 0.3319 0.672 0.5759
3790.441 0.50559 0.5956 0.47105 0.5489 0.7237 0.46965 0.3392 0.6829 0.7071 0.4443
3809.731 0.3481 0.423488 0.3792 0.304 0.415304 0.5653 0.5521 0.7083 0.7998 0.44447
3829.021 0.159 0.203 0.146 0.139 0.51369 0.6174 0.421523 0.4303 0.5563 0.3832
3848.311 0.44377 0.6271 0.3801 0.3362 0.413286 0.285 0.42428 0.6602 0.6176 0.5226
3867.601 0.45021 0.5205 0.46869 0.50175 0.4946 0.7204 0.8864 0.5189 0.294 0.3332
3886.890 0.3891 0.314 0.162 0.45747 0.635 0.413688 0.6802 0.9101 0.7414 0.7221
3906.180 0.8045 0.5665 0.5632 0.5958 0.75 1.0725 0.8685 0.413382 0.632 1.0759
3925.470 0.6768 0.4013 0.5377 0.42939 0.3413 0.4619 0.43523 0.3439 0.524 0.7663
3944.760 0.7512 0.7073 0.3499 0.057 0.40528 0.5885 0.652 0.6924 0.6101 0.3636
3964.049 0.3464 0.5944 0.45472 0.585 0.7631 0.6181 0.5694 0.48616 0.47916 0.615
3983.339 0.7396 0.5501 0.5819 0.5636 0.3948 0.572 0.6487 0.6441 0.44865 0.49959
##END=
