##TITLE=Ethylene Oxide
##JCAMP-DX=4.24
##DATA TYPE=INFRARED SPECTRUM
##CLASS=IUPAC A
##ORIGIN=NIST, Anayltical Chemistry Division, 301-975-3108
##OWNER=COPYRIGHT (C) 1998 by the U.S. Secretary of Commerce
##DATE=98/10/1
##$SPECTRA VERSION=1.00
##$UNCERTAINTY IN Y=2.1 % relative (B=1.1E-04,C=1.2E-09,D=2.7E-14)
##CAS NAME=1,2-Epoxyethane
##CAS REGISTRY NO=75-21-8
##MOLFORM=C2 H4 O
##MP=-111 C
##BP=13.5 C
##$NIST SOURCE=QUANT-IR
##SPECTROMETER/DATA SYSTEM=IFS66V (Bruker)
##INSTRUMENT PARAMETERS=KBr Beam splitter; MCT Detector; Multipass cell
##STATE=gas
##SAMPLE DESCRIPTION=Ethylene Oxide Primary Gas Standard
##PRESSURE=101.3 kPa
##TEMPERATURE=23 C
##SAMPLING PROCEDURE=1 L/min Flow
##RESOLUTION=1.9290
##DATA PROCESSING=Boxcar Apodization
##XUNITS=cm-1
##YUNITS=(micromol/mol)-1m-1 (base 10)
##XFACTOR=1.0
##YFACTOR=9.0949E-13
##DELTAX=0.9645
##FIRSTX=574.687
##LASTX=3974.595
##FIRSTY=-4.11E-07
##MAXX=3973.63
##MINX=574.69
##MAXY=.0013491
##MINY=-.0002027
##NPOINTS=3527
##XYDATA=(X++(Y..Y))
574.69-452628-338808 4786 98604-356430-1009162
579.51-189158-272378-349328-270762-265786-426000
585.29-15866-710984-69394-237010-4214-352404
591.08 161504-343254 114828-519216-558612-137942
596.86-207536-753518-235054-349626 220766-300672
602.65 43388-528300 16908-704084-327668-408918
608.44-143662-431482-12910-454786 35428-241598
614.22-199194-367882-148832-448672 2300-360426
620.01-5908-302880-67452-384400-11018-395922
625.79-54714-354580-165810-431070-180140-216190
631.58-218334-451636 9262-461696-64136-210526
637.36-232206-382440-16594-122862-64386-394330
643.15-137182-288758-224356-407714-171122-368134
648.93-31730-241264-223994-273040-179702-299714
654.72 24370-380340-50440-325392-111158-319250
660.50-67486-266276 118402-400402-24440-447038
666.29-190620-323910-18512-275892-57738-340450
672.08 2714-315522-95856-269126-89130-131262
677.86-24246-307726-64084-151024 115552-269444
683.65-1146-341452-118632-288670-44278-253402
689.43-14438-237744-153716-230528-187268-283970
695.22-177098-330102-26680-286168-206456-265738
701.00-7674-318230 44274-268952-249772-431140
706.79-43802-269708-126406-328346-165994-240050
712.57-5266-303626-138810-340256-197952-242148
718.36-87476-227594-29628-187216-35124-278878
724.14-105986-381470-139286-174760-80550-231648
729.93-34228-139292 40208-88780-32608-95780
735.71 27274-145914 8816-98406 91170-35366
741.50 101370-12500 208232-41962 164284-2050
747.29 275246 102788 217028 133026 210784 227900
753.07 435522 269062 360528 326570 570018 287640
758.86 596244 408318 539684 577198 816542 747432
764.64 903802 811176 1150096 890808 1195492 1272436
770.43 1401908 1312818 1731158 1755270 1936876 2207226
776.21 2362688 2439874 2882218 3073494 3289740 3777984
782.00 3836134 4246902 4747648 4957918 5645332 6150340
787.78 6505706 7070840 7877280 8000512 8786094 9377994
793.57 10482250 10591360 11491610 12321590 12618110 13184780
799.35 14451070 14441080 15482170 15892060 16048300 17402790
805.14 17625970 21400300 26802420 25378760 25838670 26149390
810.93 26651920 26139130 28531180 30133440 31237100 29098320
816.71 24434900 31425020 56782070 77091720 82283310 29491480
822.50 16547500 19846990 22685130 26557260 29011950 32675230
828.28 39517200 44550240 54011590 63900700 72898720 85483630
834.07 97178500 108926900 121970200 132824100 143360100 143514800
839.85 136747400 131635200 131415200 129013000 129653200 135493100
845.64 133504500 144765000 147441700 154810600 163529900 171332000
851.42 178320600 184901700 195075600 195362600 202582100 205140600
857.21 200491100 201154800 195050700 187417200 176845200 168162600
862.99 160869100 163214700 164999700 174864700 189588500 214197000
868.78 249171900 279542700 302172000 298184100 254233600 177918700
874.57 88130430 34648140 57886800 138897100 203702000 219072500
880.35 225301500 216943600 200507600 182810100 164467700 156115200
886.14 149182500 142306900 140662000 140587600 139079000 138962500
891.92 139409700 141363500 139623200 138993600 141542600 137303700
897.71 136728100 136547100 132848900 128871700 128663000 122860800
903.49 118091200 117752200 109089900 106747600 101536800 96781090
909.28 91394620 85907690 83535580 75037260 72347700 67059960
915.06 62714050 57394620 53922720 50246500 44213700 43076740
920.85 38003440 34705530 32241370 28887050 26423250 23636920
926.63 21563260 19004480 17900720 15299250 13805890 12663510
932.42 11034120 9802814 8887228 7709416 6986196 6117400
938.21 5310548 4677706 4284866 3632748 3166738 2793516
943.99 2525100 2081344 1867548 1675104 1364400 1164586
949.78 1194174 839742 746990 694842 541128 432350
955.56 344010 325804 304406 231934 170106 111448
961.35 142460 107428-2114 10708-65586-45118
967.13-13244-48518-44750-134704-151232-95988
972.92-34098-134554-106052-127804-79680-100428
978.70-142618-152952-168754-156402-172652-88994
984.49-163242-136328-146768-150812-234652-160412
990.27-192086-146012-175992-168022-163430-162646
996.06-153620-181228-231296-151056-143774-153364
1001.85-218870-162098-189572-132356-192244-214544
1007.63-166596-86320-185070-138042-95268-133236
1013.42-190456-120594-153534-170876-128862-130628
1019.20-189858-132658-158812-138808-166236-74696
1024.99-148010-93808-111100-34752 393346 242098
1030.77-119064-40940-101764-23906-94360-38368
1036.56-107726 5866-117722 74952 14504 42002
1042.34 59596 66126 83312 132938 24710 123204
1048.13 168100 203610 80284 233486 155212 231058
1053.91 215076 389474 361086 343782 315490 406632
1059.70 349232 575106 440974 722278 445000 786894
1065.48 747546 756934 790828 791750 874598 944050
1071.27 1014120 1000046 1013714 1148588 1158320 1238486
1077.06 1354184 1291890 1492492 1416592 1501196 1821776
1082.84 1485238 1907734 1648786 2028084 1876626 2040594
1088.63 1935844 2128488 2093576 2162518 2328038 2346746
1094.41 2269046 2612312 2449582 2753270 2425290 3036690
1100.20 2722530 3097272 3049536 3468788 3291472 3644756
1105.98 3791120 4140646 4083848 4430386 4693832 5022536
1111.77 5065542 5584410 5734418 6055240 6125610 6491688
1117.55 6554088 6650586 6880422 6898468 6888750 6700382
1123.34 6855550 7046774 8184462 7994972 8233086 8318536
1129.12 8793954 9671004 10382570 10486500 11578240 11141450
1134.91 10763460 10088850 7828476 6736394 7113530 8489178
1140.70 23316630 23144960 18640310 18168480 15024390 11007440
1146.48 4727840 3847230 6315880 19428820 19035510 12638720
1152.27 11719810 11922990 11381100 9367020 7332852 5911300
1158.05 5562502 5271712 5680142 6599932 7452190 8128012
1163.84 8874640 9753540 9687448 9980476 9964002 10206890
1169.62 9294434 9607992 8801166 8983732 7742366 8335222
1175.41 7297522 7480170 6426422 7113976 5876298 6374926
1181.19 5516854 6028192 4910658 5600968 4747986 5089078
1186.98 4337152 4998338 3892444 4509674 3774776 4344058
1192.76 3430580 4013942 3284574 3578142 3136586 3428756
1198.55 3063508 2870318 3089514 2799640 2927076 2521812
1204.34 3031248 2436510 2855644 2508642 2810574 2601310
1210.12 2928172 2833594 2937444 3194794 3173644 3515366
1215.91 3589170 3969024 4213126 4661818 4981862 5491968
1221.69 5878114 6597186 6880276 7988586 8376380 9232882
1227.48 10358680 10981710 12056690 12984710 14383040 15176910
1233.26 16414240 18097940 18637280 20620800 21338780 23160800
1239.05 23891400 25399090 26779710 27241900 28862740 29737930
1244.83 30127730 31428870 31948450 32265970 32653440 33483560
1250.62 32670970 33228400 32874220 32201710 31807040 31499030
1256.40 31461310 31807180 33018100 35364030 37187220 39765710
1262.19 43817400 47728390 50762400 51690220 47363790 37444850
1267.98 21708380 8611940 9241950 24853430 42651420 52693070
1273.76 54876220 52816970 48483730 43729230 38763720 36223810
1279.55 34525150 33161140 32609190 33229720 33143920 33735920
1285.33 34008450 35064360 35014900 34948810 35787280 34939540
1291.12 34549560 34410010 33240340 32076450 31308650 30030890
1296.90 27914760 27508970 24893250 23946280 21971670 20544290
1302.69 18951380 17082310 16234390 14175720 13126410 11928860
1308.47 10586420 9589146 8445974 7994770 6374326 6413720
1314.26 5308218 4805198 4220050 3740720 3229464 2942150
1320.04 2559518 2313892 1891120 1755830 1335106 1402024
1325.83 1011838 1027578 736914 780846 517466 572716
1331.61 314778 429524 162626 328828 30178 214270
1337.40-2108 106758-48584 83916-117240 90700
1343.19-153398 93044-179758 10246-157762 51702
1348.97-237926 7744-309942-34932-280696-70504
1354.76-220042-30894-271704-44914-274786-66092
1360.54-254804-30486-213554-55034-154814-33594
1366.33-288632 9616-238194-17064-202832-38732
1372.11-258988-19932-203080 4946-252176 24596
1377.90-227632 46526-184950 54688-208798 22866
1383.68-180564 11392-187796 16788-157080 54730
1389.47-153678-6528-167162 10570-200704 34528
1395.25-190350 40128-213616-26832-134366 79228
1401.04-210630-80-182384 604-186968 20274
1406.83-281206-9718-223808-35292-277254-11044
1412.61-282840 13040-243118-4310-229140-3512
1418.40-170516 26518-228358 52472-166318 89970
1424.18-144960 134824-69620 173170-24426 257978
1429.97 47578 327086 201432 470040 252988 601248
1435.75 430542 766276 492992 809284 657040 997742
1441.54 780626 1155658 902854 1204448 1031626 1377176
1447.32 1140110 1434108 1116600 1422100 1231344 1429186
1453.11 1216738 1446962 1202554 1481776 1219492 1442834
1458.89 1192208 1405534 1224014 1534890 1352336 1703698
1464.68 1522736 1846222 1695998 1993818 2046764 2479596
1470.47 8585650 3172210 1934380 2688026 2358266 2948466
1476.25 2654072 3089390 2675746 3109524 2777774 3089128
1482.04 2901278 3133266 2418404 3048852 2839798 3386934
1487.82 3191832 3822232 3815012 4460608 4259682 4592288
1493.61 3708236 3149504 1561816 856564 703738 2683780
1499.39 3778092 4367478 4208484 4296520 3474064 3476808
1505.18 2809666 3030300 2507706 2761638 2463834 2840484
1510.96 2486458 2961180 2650134 3109000 2692072 3142050
1516.75 2881182 3106856 2817476 3203150 2809762 2992896
1522.53 2652164 2745634 2409456 2611880 2104160 2372498
1528.32 1827866 2185432 1522810 1822238 1324478 1563680
1534.11 1052986 1314702 866414 1083800 733500 977590
1539.89 500420 790398 298694 623910 218222 522100
1545.68 94372 392806-23504 389162-45474 264568
1551.46-25320 268872-71590 242462-123116 233036
1557.25-732 316290-16766 312014-146192 290964
1563.03-88596 301182-56214 331870 29362 349768
1568.82 102562 443970 43724 523998 119554 546632
1574.60 251954 767768 270264 702506 434822 754944
1580.39 528406 831962 704702 872866 711776 1164368
1586.17 697402 1483294 612084 1718222 679130 1891928
1591.96 822672 2021888 910812 2287886 899166 2581626
1597.74 1025426 2726832 1217600 2774872 1583996 2679302
1603.53 1969460 2631890 2274372 2791596 2440286 2953832
1609.32 2633176 3015086 2841394 3210772 2849276 3452758
1615.10 3110958 3722148 3203808 3768168 3018148 3700454
1620.89 3011990 3308930 3210872 4135848 5583704 5515364
1626.67 3301110 3761934 3032412 3547512 3465554 3801810
1632.46 3696172 5243426 5194806 5255926 4968898 4372116
1638.24 3118112 5265734 9603740 15232480 12281090 7078580
1644.03 4381220 6098312 8074294 7298714 6280582 5962960
1649.81 5044028 5158138 4456246 4517544 3718624 3919508
1655.60 3257286 3418680 2960790 3093996 2533700 2789206
1661.38 2406628 2456142 2097826 2283678 1647724 2087930
1667.17 1472348 1774358 1258788 1478602 1017498 1190828
1672.96 653324 1008534 488928 780878 178442 579066
1678.74 40614 438116-134288 288116-327902 310104
1684.53 80798 194346-307912 117108-428096 109620
1690.31-407126 73124-379244 127894-173248 368142
1696.10-111340 472858-29620 580854 41364 524666
1701.88 38880 539000 106466 608672 201224 769152
1707.67 305662 862652 440758 1039826 538464 1051644
1713.45 630136 1163808 550330 1089346 549280 965678
1719.24 343144 792402 260542 693704 187012 560434
1725.02 32896 479392-11836 468928-80272 490288
1730.81 6578 546948 103682 587678 101934 560692
1736.60 63542 509708-14698 469586-76674 433022
1742.38-37312 703620 844012 1490644 731600 989906
1748.17 83822 360092-246192 470958 189534 707794
1753.95 126394 717698 144396 672634 96928 597092
1759.74 8342 556296-12094 488100-35926 467472
1765.52-33796 502024 64888 477002-12692 579370
1771.31 400 551102-104194 470500-91274 442582
1777.09-113732 357304-153116 340900-195728 292232
1782.88-258690 322522-256402 242188-309140 188408
1788.66-336038 231416-354522 220838-358640 155798
1794.45-352646 136122-379620 203834-375560 174466
1800.24-403594 190112-268662 185462-347700 280188
1806.02-359480 275464-302202 221502-248694 383504
1811.81-173740 333420-234186 377256-187118 315228
1817.59-143390 415094-226008 420874-226954 343818
1823.38-220002 360620-325060 328296-323110 293986
1829.16-155232 278080-240896 351758-216058 454650
1834.95 140570 980426 883374 860182-346200 350344
1840.73-258602 287074-372722 181982-354814 536882
1846.52-229434 455390-238018 384522-172138 425570
1852.30-220536 476224-142696 481250-120488 458560
1858.09-168886 503346-173436 427016-153774 435698
1863.88-186430 400708-277140 410158-266962 334436
1869.66-303488 269714-308246 292768-414882 285222
1875.45-383586 248456-387936 172062-410780 236226
1881.23-370064 263072-415772 327586-421498 264538
1887.02-380132 290028-274354 305868-302670 362240
1892.80-333852 311666-252324 351496-235688 413308
1898.59-212170 446162-180984 415494-114954 482934
1904.37-193842 480532-119520 579962-167248 558224
1910.16-73940 558516-163314 542374-81088 548368
1915.94-130988 577990-35152 554176-87926 595510
1921.73-19638 724274 119354 774762 265956 979874
1927.51 619386 1541730 1310066 2352100 2496770 3922364
1933.30 4172874 3560820 320416 1102560 77618 841982
1939.09 161574 942030 106440 931852 214228 927082
1944.87 202866 931654 232130 1034254 320320 1139126
1950.66 511748 1322830 687262 1411130 790876 1573824
1956.44 835294 1647240 916480 1806402 959518 1773130
1962.23 877328 1332128 681558 1447194 863372 1664416
1968.01 877682 1689222 866760 1621684 900940 1731456
1973.80 1011122 2117208 1288366 1894108 1208642 1904844
1979.58 1064544 1886146 1295402 2403448 1223330 1895202
1985.37 1267322 2123482 1420126 2274852 1676484 2541686
1991.15 1939016 2812892 2193880 2954822 2330268 3126230
1996.94 2458264 3208554 2402076 3195534 2398054 3031192
2002.73 2310484 2992316 2076604 2978386 2405520 3298292
2008.51 2809524 3722696 3305276 4224658 3560604 4051924
2014.30 3014156 2621430 1861582 3402756 3509660 3163068
2020.08 1050842 1349266 605686 1699202 931972 1879374
2025.87 1349794 2250026 1563416 2516566 1748976 2607982
2031.65 1744014 2644804 1860914 2905904 2069350 2979178
2037.44 2052616 2935178 1894442 2755164 1717300 2517380
2043.22 1585838 2327948 1399632 2232404 1215856 2030390
2049.01 1117220 1927346 1006752 1824700 818744 1690456
2054.79 693020 1565774 603616 1604008 710420 1625928
2060.58 601650 1491064 561894 1483212 516184 1415974
2066.37 485320 1413526 557918 1518256 636570 1663344
2072.15 1012030 2214558 963430 1225950 333426 1561680
2077.94 629998 1829584 787728 1562736 257114 3202364
2083.72 2992720 970542 254302 932268 387018 1227978
2089.51 531986 1127952 405324 1279376 758038 1825028
2095.29 1082050 2326552 1695274 3221668 2042340 2727336
2101.08 1719470 2677604 1519774 2297146 1299444 2235666
2106.86 1372468 2116144 1224116 2172812 1407316 2000996
2112.65 1255316 1971794 1399038 2018666 1141898 1950716
2118.43 1142518 1818890 792392 1595624 750522 1540062
2124.22 545416 1495108 702912 1797930 848520 1942308
2130.01 1076224 2010888 621630 1236020-169000 894718
2135.79 281802 1713022 935370 1946832 1011630 1869520
2141.58 833182 1679872 661768 1549760 569032 1481236
2147.36 477228 1406876 425232 1437890 373446 1410576
2153.15 430330 1491026 342406 1340386 471750 1454158
2158.93 312312 1531532 537304 1521714 296546 1548406
2164.72 439532 1498598 320056 2809356 2540040 1428634
2170.50 127378 1107066 172952 977692 42452 1369378
2176.29 954156 2402184 576446 1038270-79644 823078
2182.07 4868 899048-84610 1076958 242896 1048782
2187.86 3680 1098714 95604 1035442 161536 1200204
2193.64 110966 1155348 301676 1213602 77858 1266682
2199.43 125564 1182334 175012 1315250 142498 1258512
2205.22 249412 1298636 299930 1317362 490588 1472710
2211.00 576792 1491714 583232 1643938 584134 1872896
2216.79 697540 2006452 918268 2097490 1139842 2183190
2222.57 1353696 2407024 1511380 2598982 1723760 2856816
2228.36 1854500 3057810 2204600 3426436 2371140 3521558
2234.14 2501198 3660604 2683218 3894000 2871464 4011556
2239.93 2931506 4368440 3155814 4603352 3744318 4712604
2245.71 3425246 4572154 3496928 4622558 3669940 4875810
2251.50 3822190 5085716 4153720 5358134 4343970 5541130
2257.28 4252932 4948284 2411270 3544996 2586512 3305126
2263.07 1894020 2880972 1692888 3090202 1993794 3911924
2268.86 3911670 5145854 4326398 5191330 3528762 5204254
2274.64 3687104 5090804 3780616 5131034 3941074 5051958
2280.43 4011036 5172674 3710738 4468256 3068920 3856322
2286.21 2540550 3352230 2168648 3290466 1891094 3062234
2292.00 1773246 3127212 1841366 3267752 1338778 2882576
2297.78 1261154 4707538 3103764 2272774 1239314 2244654
2303.57 1161182 2134470 881674 2012912 689772 2187974
2309.35 1904008 4571104 1459814 1705842 756786 1837530
2315.14 824932 1900664 1136720 2255604 1119144 2138958
2320.92 1000128 2158914 1050126 2122872 942994 2128526
2326.71 993286 2043466 906752 1940466 700010 1748982
2332.50 496688 1539328 291174 1374266 189798 1334944
2338.28 193764 1204190 35182 1027300-27476 1042746
2344.07-76630 794636 895328 2740060-435782 1150264
2349.85-393446 1085262-456866 1084318-508704 1028486
2355.64-504474 968264-548240 885522-437502 875064
2361.42-462062 869102-414068 926952-438192 950778
2367.21-440638 926592-435580 1026774-445060 1043934
2372.99-411806 1065284-404514 1034664-464700 1031044
2378.78-409966 1045386-446528 1008900-392036 974026
2384.56-472130 929700-451760 931374-507302 958928
2390.35-318648 996620-488388 1031170-445880 975262
2396.14-559204 967802-504702 939234-584710 960922
2401.92-544038 946370-521840 999830-530080 966818
2407.71-637546 986200-550764 857390-689948 801824
2413.49-746420 784752-709252 792574-719906 821540
2419.28-743770 844956-711660 831078-704668 889296
2425.06-734546 864410-696202 889326-638818 898528
2430.85-713394 857034-741594 884552-753284 876450
2436.63-733852 857470-737214 845616-739170 882250
2442.42-730742 878518-703976 985494-808636 816928
2448.20-746150 939242-695688 780096-788968 767100
2453.99-739334 934218-513114 1068100-566126 912512
2459.77-746776 882068-806980 851754-843552 869126
2465.56-908342 823178-904326 739070-922636 767794
2471.35-988852 744264-954168 684206-964668 739602
2477.13-980488 665104-1088750 622748-1028836 605368
2482.92-1098490 619544-1086542 593846-1094992 565286
2488.70-1137390 535014-1126258 540044-1189216 550724
2494.49-1068334 731266-1065786 752594-1030328 755614
2500.27-1117284 723896-1120562 741824-1085430 780368
2506.06-1190468 686884-1093802 650604-1173262 737462
2511.84-1219056 637940-1220946 648930-1231328 633266
2517.63-1218666 652368-1282014 615800-1245140 621292
2523.41-1246498 605870-1278486 585244-1241436 573416
2529.20-1298652 595050-1432460 446618-1469580 539118
2534.99-1251208 849782-1059104 975832-961988 892038
2540.77-1104708 738282-1256824 627816-1372724 604520
2546.56-1400560 569348-1408782 601196-1344630 686370
2552.34-1361386 688810-1294646 767388-1214076 834548
2558.13-1191214 847254-1131158 894708-1217176 827850
2563.91-1156898 969830-1136820 943806-1036304 1034840
2569.70-1092086 1122706-1015102 1066636-952074 1192554
2575.48-906036 1159468-806080 1279606-848050 1378498
2581.27-671428 1427144-644642 1505762-636120 1635898
2587.05-492738 1729198-497034 1798490-364298 1760044
2592.84-485110 1730612-265986 1811454-264194 1937402
2598.63-248586 1904666-127532 2089738-169616 2093600
2604.41-64422 2189994 16036 2537706 627470 2933244
2610.20 611214 2856194 144790 1763052-680990 1742454
2615.98-64902 3236050 981858 3400262 309690 2519798
2621.77 30606 2375064-37896 2288366-118736 2238826
2627.55-133556 2371298 103132 2573178 179582 2533430
2633.34 68634 2539948 70788 2429512-57258 2364750
2639.12-220554 2192618-435646 2054888-560062 1956050
2644.91-643308 1879812-699982 1722010-812478 1636668
2650.69-912968 1578412-1075468 1502904-1140740 1432912
2656.48-1089366 1369732-1233076 1324638-1338074 1318242
2662.27-1365708 1233980-1394088 1290300-1472410 1195932
2668.05-1426498 1216030-1411486 1243206-1453464 1235814
2673.84-1536092 1271932-1523046 1215800-1540270 1238570
2679.62-1544174 1198560-1600590 1246732-1571554 1293618
2685.41-1563536 1269486-1600612 1287974-1572246 1293474
2691.19-1569038 1334064-1597468 1306494-1629402 1344228
2696.98-1605764 1346624-1593772 1326898-1586502 1443338
2702.76-1591790 1490830-1559866 1528918-1454588 1598476
2708.55-1473480 1593392-1527982 1618246-1522054 1621748
2714.33-1500068 1651416-1436796 1641218-1452684 1809216
2720.12-1459164 1743400-1493044 1764572-1500290 1813670
2725.91-1401914 1869310-1434790 1896006-1479724 1960374
2731.69-1522908 1966448-1397432 1990928-1452988 2103324
2737.48-1525978 3546932-804902 1766918-1185338 1946000
2743.26-1249292 2079950-1299784 2078918-1335118 2120460
2749.05-1368914 2219020-1270276 2342244-1074222 2442192
2754.83-974156 2339814-1241182 2332580-1252300 2398814
2760.62-1370358 2217740-1397978 2243894-1251230 2391514
2766.40-1352086 2317258-1364696 2347608-1426720 2293324
2772.19-1526374 2266278-1665962 2122356-1616346 2124140
2777.97-1793888 2174516-1857526 2128910-1816868 2169292
2783.76-1863720 2159452-1882058 2202346-1932712 2144624
2789.54-1992098 2087212-2011644 2137802-2108544 2083110
2795.33-2088940 2219984-2151132 2155646-2142588 2150690
2801.12-2266420 2058168-2247596 2106150-2248258 2229134
2806.90-2300138 2143620-2364852 2209668-2408744 2132938
2812.69-2439652 2190578-2418964 2176214-2458010 2299548
2818.47-2511990 2297998-2526278 2294390-2546374 2296484
2824.26-2539482 2362892-2623186 2377898-2564618 2431842
2830.04-2672338 2370214-2696308 2487964-2688246 2479362
2835.83-2646342 2532612-2773404 2625042-2693550 2666526
2841.61-2757592 2745966-2749118 2710900-2774190 2873442
2847.40-2680762 2946858-2716036 3065564-2703662 3048542
2853.18-2680872 3154734-2802964 3182898-2759088 3384898
2858.97-2713606 3502016-2671678 3658338-2622192 3849146
2864.76-2474196 4047640-2438752 4228276-2216772 4500332
2870.54-2064666 4854794-1797180 5252804-1517016 5840922
2876.33-993538 6436334-347342 7171208 360344 8298782
2882.11 1371674 9451506 2738456 11231440 4302868 13225870
2887.90 6431008 15355730 8685890 18178140 11226550 21210040
2893.68 14367340 24425600 17910000 28431830 20678860 32301780
2899.47 24485070 34927030 27935730 39081220 29271600 42050200
2905.25 32476560 42946970 34356720 45361210 33715180 47142060
2911.04 34182960 46310550 34999310 47214890 33414240 49505620
2916.82 33350610 50216330 33441500 47212980 26548060 43954390
2922.61 18785010 43174090 17079580 46394590 15386000 61564700
2928.40-7522878 234057400 186314700-3229572 49670250 19217280
2934.18 45061670 30420360 44138460 35962980 43509030 40871200
2939.97 45834000 44361850 49026840 49163220 50873660 54110980
2945.75 53125450 56067540 55750460 57384600 56228780 59012810
2951.54 54421090 59615720 53302320 57233990 52983630 55191480
2957.32 49998780 55544060 48126340 55520600 51347770 56336330
2963.11 50249030 55536150 45966500 49931520 36375460 41837680
2968.89 35348160 51355620 49506520 60792120 53167220 63790620
2974.68 54826270 63963220 55479010 69139580 58307650 71613580
2980.46 63967040 75451060 66188190 81206870 68077030 83965060
2986.25 71635280 84037140 71697940 86812660 69362220 86424020
2992.04 68421390 82561220 65302780 83122710 60836740 85000300
2997.82 67840230 90832930 54270270 83013570 38887860 88039030
3003.61 22486530 246742700 400009900 40528860 81072170 52141350
3009.39 81653380 78644770 96984840 91885740 94481380 91748340
3015.18 89062180 84553580 80336620 93107820 107289000 122884400
3020.96 124179500 135600300 127707600 133145600 126438000 135820000
3026.75 125270400 138509600 129163000 136799300 128993100 142941900
3032.53 121576200 142758800 123013500 136751100 116754300 136494500
3038.32 110877000 128027800 104851700 124689500 92717920 121943600
3044.10 82228780 108526400 67903390 104850000 52316940 94775450
3049.89 42827870 88366720 26117980 83878230 12520460 79480770
3055.67 575646 86303700-12376460 112726400-516712 176309300
3061.46-46941690 214454900-90388760 1483360000 1247364000-222961200
3067.25 207427300-85206940 121904300-44687370 95109560-26224130
3073.03 80345180-14565120 74575700 1333688 72690820 12690280
3078.82 79094460 22728860 81966830 37303980 84037660 42361770
3084.60 91901730 49313220 89738140 58450850 91377690 57656380
3090.39 95110300 61007120 89853740 63008520 90132410 58295340
3096.17 87695420 58625770 80121580 55529380 77783950 48456710
3101.96 72158290 46575050 63510720 41283660 59383630 34051990
3107.74 53157180 30653920 45993410 25635520 42617880 20941460
3113.53 35607280 16550910 31212410 13379860 27737200 9288508
3119.31 23944410 6593982 20448730 4121228 17957350 2269410
3125.10 16186350 939332 13780140-698310 12212690-1739702
3130.89 11118960-2478816 10039920-2991014 9246396-3623072
3136.67 8511580-3864180 7848738-4060272 7481924-4422920
3142.46 6910224-4458698 6544534-4658966 6263262-4642364
3148.24 5915198-4649574 5679294-4546686 5439538-4629838
3154.03 5316978-4754524 5087272-4655662 4997106-4598746
3159.81 4825934-4558972 4722048-4548542 4538126-4391326
3165.60 4410894-4359480 4335030-4322424 4404478-4219258
3171.38 4118522-4002962 4279200-4053152 4091326-3966688
3177.17 3915626-4062100 3817660-3926290 3732560-3853534
3182.95 3769836-3898614 3603016-3741008 3606722-3770650
3188.74 3573598-3654508 3587602-3583492 3483648-3604954
3194.53 3472248-3467940 3280772-3489138 3291474-3347602
3200.31 3317662-3385950 3054882-3316872 3130942-3344868
3206.10 2974450-3251614 3083054-3250922 2933638-3257254
3211.88 3003030-3213156 2905100-3160498 2834014-3077184
3217.67 2817696-3091692 3004974-2988154 2683766-3040404
3223.45 2663048-2980482 2610100-2950372 2548790-2849450
3229.24 2577296-2896084 2479472-2845392 2596716-2827772
3235.02 2466292-2778354 2491840-2840002 2409734-2800210
3240.81 2363638-2713842 2486646-2690754 2310334-2626672
3246.59 2351868-2635782 2339698-2694570 2220304-2642920
3252.38 2271544-2625000 2213908-2382670 2170180-2549658
3258.17 2017758-2550558 2172592-2532380 2151320-2535922
3263.95 2188278-2501168 2079404-2553048 1962220-2526988
3269.74 2035232-2491902 2031718-2454418 2033056-2322508
3275.52 1952718-2275620 1957038-2357452 1783300-2576240
3281.31 1721090-2481242 1741586-2398052 1769966-2314990
3287.09 1828500-2324114 1810124-2342180 1771992-2367534
3292.88 1659260-2251686 1693458-2172070 1567188-2211590
3298.66 1713452-2242292 1599504-2146240 1806674-2174704
3304.45 1782780-2114168 1722488-2184204 1610826-2082994
3310.23 1649556-2095590 1650998-2062972 1602758-1995014
3316.02 1513982-1994028 1579500-2039944 1565402-1983284
3321.80 1541414-1971372 1665930-1916314 1617528-1932760
3327.59 1474360-1928028 1501010-1953700 1654988-1899722
3333.38 1585168-1908534 1416492-1847908 1545934-1839192
3339.16 1378228-1833892 1486672-1911308 1552916-1929520
3344.95 1401878-1794566 1466400-1758452 1458970-1820534
3350.73 1464170-1770536 1373764-1769896 1459456-1746762
3356.52 1396692-1659900 1346838-1611628 1393236-1722050
3362.30 1363528-1688420 1257484-1602050 1348024-1769318
3368.09 1422550-1664890 1238330-1601274 1220044-1591600
3373.87 1344376-1674364 1264834-1569090 1214980-1682690
3379.66 1260192-1660836 1231466-1677796 1304062-1516860
3385.44 1190664-1552806 1132064-1621382 1178650-1522398
3391.23 1359608-1504362 1164158-1629716 1173598-1629976
3397.02 1185804-1559136 1181418-1470766 1227764-1663810
3402.80 1121124-1546696 1201812-1435806 1172714-1575614
3408.59 1254262-1448392 1183660-1443230 1164696-1406314
3414.37 1233564-1506464 1127390-1351838 1174656-1470888
3420.16 1217948-1389384 1172942-1437484 982360-1423946
3425.94 1027282-1381428 1018502-1350102 1161780-1363640
3431.73 1065128-1387398 1006338-1430678 1157426-1383156
3437.51 1007794-1419838 1113558-1336570 1083540-1433128
3443.30 956394-1304986 1088646-1342816 993322-1267714
3449.08 982336-1310822 1091522-1324394 1014318-1296636
3454.87 1103576-1381960 1087456-1313342 964860-1335500
3460.66 983682-1359876 925500-1401008 975580-1259998
3466.44 1128478-1281874 945460-1217904 988802-1212268
3472.23 1057846-1173938 894816-1342498 928644-1330526
3478.01 903254-1244204 857616-1182386 850750-1271678
3483.80 947206-1096688 942060-1238250 815144-1245618
3489.58 862062-1228748 930240-1258984 834294-1239764
3495.37 878968-1263394 871736-1206114 875964-1185864
3501.15 1067090-1249496 850300-1207216 861416-1187882
3506.94 875602-1160900 819728-1178632 820750-1198106
3512.72 852750-1229486 815030-1116764 826376-1184742
3518.51 826642-1089008 836032-1127066 838056-1114486
3524.30 761318-1251592 721848-1165042 757752-1233770
3530.08 761396-1125492 801452-1131650 778398-1188608
3535.87 882614-1078862 853756-1208730 758256-1149358
3541.65 822456-1137962 822426-1199666 833752-1139376
3547.44 735794-1096342 770730-1133676 695814-1203352
3553.22 766370-1119412 744964-1117636 689292-1173452
3559.01 754092-1052594 711618-1144294 697302-1135374
3564.79 715446-1018352 676448-1085132 614572-1103974
3570.58 643312-964448 518602-1159640 751722-1051964
3576.36 729348-1122310 697220-1022324 681252-1071506
3582.15 698476-1011566 664414-1082496 689296-950914
3587.94 629140-947354 505814-1116008 654916-978080
3593.72 625240-891630 705064-1082722 584564-1127966
3599.51 696422-996614 661470-979480 587116-1027548
3605.29 651916-1069056 692818-973546 714598-1009094
3611.08 632332-915520 638226-991748 691666-976610
3616.86 609288-945030 667430-919852 711760-894778
3622.65 494452-884854 644068-883884 657484-919782
3628.43 745094-966550 616950-948840 578122-896690
3634.22 674442-817062 608964-854702 639504-1019498
3640.00 598304-885468 582744-880050 563674-925236
3645.79 543268-873052 609922-808410 629590-866198
3651.57 572228-840196 526944-914008 594846-879746
3657.36 534862-948384 478486-805628 539486-871296
3663.15 533720-868654 524840-752778 568474-823142
3668.93 642084-664180 642464-885178 537044-756512
3674.72 723916-770620 612944-677476 647908-728964
3680.50 640644-629742 617366-606800 723540-589868
3686.29 836160-604066 869738-492504 808352-541500
3692.07 835876-495246 887148-556910 919368-502662
3697.86 868188-445014 932892-408122 967000-415132
3703.64 1051464-330940 912030-298138 1045644-350650
3709.43 1031234-274348 1206854-205714 1142782-97178
3715.21 1270236-140272 1201672 79958 1364696 143590
3721.00 1654740 484922 2324058 3306056 1790182-73772
3726.79 1442822 188136 1527354 101782 1504748 321670
3732.57 1519294 327374 1409596 220172 1520326 203284
3738.36 1592396 662058 2231758 1560788 2103542 373750
3744.14 1774826 406138 1736836 445492 1719218 623726
3749.93 1916844 1181186 2225214 825796 1901538 708924
3755.71 1978598 821802 2007596 869780 2217846 1182576
3761.50 2373658 1371198 2381562 1116742 2400432 1742230
3767.28 3354272 2071648 2779828 1541020 2503724 1172432
3773.07 2012458 778562 2058836 785116 2076602 724242
3778.85 1905610 1026152 2462658 1686998 2756852 945158
3784.64 2041960 1086564 2317550 1097260 2354972 1265738
3790.43 2314940 1385910 2429192 1288846 2495478 1562176
3796.21 2613054 1665504 2789448 1679646 2897088 2058728
3802.00 3012016 1975172 3242836 2232866 3130074 1998024
3807.78 3238274 2324582 3581454 2910074 3525084 3481682
3813.57 6243820 8370762 7151754 1362606 3252654 1833998
3819.35 3543088 1767342 3399708 1629008 3070746 2029192
3825.14 4228508 3073628 5456208 5255514 6861446 4242066
3830.92 3032820 2206032 3636846 3264604 4557026 3281086
3836.71 4376516 2983914 4213224 3145926 4502666 3440278
3842.49 4887646 3961092 5173316 4390684 5497852 4526008
3848.28 5310058 4090698 5013036 3976026 4738768 3852378
3854.07 4602088 3332262 4242416 3223688 4294076 3328404
3859.85 4397356 3432394 4818270 3971862 4900514 3075156
3865.64 3937970 2719786 4201302 5030558 6937078 6373676
3871.42 7186894 3954848 3676038 2488952 2918560 1617666
3877.21 2162770 844530 2270244 1124210 2171006 1329618
3882.99 1932668 912420 2007618 1062864 1941726 1204534
3888.78 2118020 1231426 2291616 1363592 2313626 1594778
3894.56 2270692 1555964 2462674 1467604 2627568 1335202
3900.35 2344990 1408758 2389860 1226572 2252176 1261080
3906.13 2073564 1141524 1935170 966402 1746090 854310
3911.92 1553222 543780 1459522 425148 1335478 328012
3917.70 1121456 189674 1061406 48962 995252 50196
3923.49 864084-124576 753604-183884 685624-115854
3929.28 1217384 140854 636062-149156 848364-135530
3935.06 973704 116662 606662-171996 680966-263056
3940.85 946554 874486 1281238 99214 954394 28540
3946.63 380414-321042 427608-353856 480570-482226
3952.42 494730 8914 1150444 179458 612364-321758
3958.20 352946-428566 416452-370172 371638-360074
3963.99 413078-473298 289762-289540 426946-490304
3969.77 269830-323682 366470-417810 383704
##END=
