##TITLE=1,1-Dimethylcyclopropane
##JCAMP-DX=4.24
##DATA TYPE=INFRARED SPECTRUM
##ORIGIN=NIST Mass Spectrometry Data Center
##OWNER=NIST Standard Reference Data Program
Collection (C) 2009 copyright by the U.S. Secretary of Commerce
on behalf of the United States of America. All rights reserved.
##CAS REGISTRY NO=1630-94-0
##MOLFORM=C 5 H 10
##$NIST SOURCE=MSDC-IR
##SPECTROMETER/DATA SYSTEM=HP-GC/MS/IRD
##STATE=gas
##XUNITS=1/CM
##YUNITS=ABSORBANCE
##XFACTOR=1.0
##YFACTOR=0.000002600
##DELTAX=4.0
##FIRSTX=550.0
##LASTX=3846.0
##FIRSTY=0.000385
##MAXX=3846
##MINX=550
##MAXY=0.026
##MINY=0
##NPOINTS=825
##XYDATA=(X++(Y..Y))
550.0 148 128 112 112 76 13 10 46 57 36
590.0 13 1 1 33 32 0 19 50 48 67
630.0 59 37 30 62 89 92 128 131 142 142
670.0 118 123 127 126 130 131 115 139 151 126
710.0 85 48 62 51 45 44 38 50 43 20
750.0 31 38 21 17 29 39 52 73 92 89
790.0 91 128 157 172 212 261 315 336 368 411
830.0 467 589 710 603 376 323 343 330 269 209
870.0 172 114 77 74 70 94 124 171 281 404
910.0 514 586 603 671 842 902 774 696 700 666
950.0 558 434 305 219 174 148 174 246 342 490
990.0 696 897 997 1036 1125 1378 1380 1083 1034 1065
1030.0 950 742 551 392 256 162 126 111 89 71
1070.0 69 50 52 76 87 104 105 112 129 138
1110.0 148 167 195 244 296 283 247 217 214 224
1150.0 211 178 140 118 102 86 84 92 93 82
1190.0 76 88 88 68 67 75 95 103 94 103
1230.0 107 111 103 108 128 145 147 142 155 170
1270.0 183 194 197 206 222 245 268 295 304 317
1310.0 320 292 280 265 229 214 220 228 234 249
1350.0 290 375 476 574 646 698 798 910 980 949
1390.0 868 891 909 862 801 731 683 677 706 759
1430.0 955 1296 1304 1151 1197 1233 1245 1320 1371 1235
1470.0 1040 966 912 821 705 581 469 372 310 268
1510.0 216 165 144 132 106 94 95 103 92 69
1550.0 74 89 101 83 86 93 84 82 85 96
1590.0 95 88 95 106 99 91 93 102 94 97
1630.0 108 120 118 119 127 130 131 122 133 138
1670.0 147 152 139 155 158 133 133 156 143 120
1710.0 115 105 107 99 82 88 98 83 69 70
1750.0 74 68 70 77 79 97 104 106 104 97
1790.0 112 112 112 116 116 106 103 106 104 104
1830.0 100 99 104 105 109 109 95 79 72 69
1870.0 67 59 53 41 38 45 39 39 49 51
1910.0 53 50 57 70 77 89 94 94 91 93
1950.0 93 92 93 90 94 90 83 77 73 70
1990.0 69 63 55 59 63 62 78 96 101 111
2030.0 129 139 143 161 179 200 178 139 131 146
2070.0 132 122 127 116 111 104 97 83 70 61
2110.0 45 26 22 32 35 25 19 31 33 25
2150.0 25 28 28 23 25 11 1 14 21 17
2190.0 4 1 11 11 17 15 6 17 14 16
2230.0 32 29 25 23 23 24 21 20 26 26
2270.0 22 22 23 22 20 24 23 28 33 42
2310.0 51 48 49 55 59 61 62 56 51 40
2350.0 31 36 34 37 37 25 13 11 11 5
2390.0 6 10 15 15 11 11 12 25 23 21
2430.0 20 19 19 15 21 22 26 30 38 48
2470.0 47 51 51 43 41 29 18 13 4 18
2510.0 33 23 23 24 16 17 23 14 1 7
2550.0 12 8 8 17 11 16 31 22 28 36
2590.0 22 13 33 42 26 16 21 21 20 22
2630.0 20 16 19 23 28 33 31 38 35 12
2670.0 10 21 36 40 32 38 49 56 57 82
2710.0 101 113 149 186 224 264 291 316 369 425
2750.0 415 378 364 359 332 284 253 236 213 221
2790.0 235 237 257 280 293 311 350 411 473 546
2830.0 606 669 767 909 1115 1384 1749 2171 2535 2780
2870.0 3024 3403 3727 3900 4090 4308 4443 4511 4589 4666
2910.0 4747 4903 5119 5370 5674 6071 6533 7060 7733 8779
2950.0 10000 9887 8672 8281 8409 7715 6721 6213 5721 5030
2990.0 4289 3783 3498 3273 3256 3322 2883 2360 2138 1935
3030.0 1697 1473 1302 1210 1241 1423 1711 2003 2203 2319
3070.0 2569 2849 2868 2648 2313 2167 2029 1687 1268 902
3110.0 633 434 346 308 274 260 258 250 250 252
3150.0 248 259 264 240 217 208 203 194 183 166
3190.0 129 120 110 99 82 58 63 52 23 26
3230.0 34 34 35 28 22 42 59 49 30 38
3270.0 60 67 66 57 48 42 59 77 67 61
3310.0 73 81 83 91 112 113 94 97 108 88
3350.0 66 62 65 81 66 49 63 63 55 47
3390.0 48 62 68 53 37 34 34 45 50 50
3430.0 44 42 32 22 23 23 28 23 21 22
3470.0 34 45 28 24 34 32 22 29 39 32
3510.0 25 20 26 24 31 34 13 17 32 9
3550.0 2 21 33 28 12 9 20 49 57 54
3590.0 37 38 60 50 48 47 37 41 35 44
3630.0 65 62 35 54 71 52 48 46 47 48
3670.0 48 49 45 52 60 52 40 23 24 42
3710.0 46 33 30 37 49 61 53 64 66 52
3750.0 64 66 55 53 56 39 40 65 68 59
3790.0 61 73 99 108 97 83 82 96 105 98
3830.0 106 121 109 97 91
##END=
