##TITLE=3-Pentyn-2-ol
##JCAMP-DX=4.24
##DATA TYPE=INFRARED SPECTRUM
##ORIGIN=NIST Mass Spectrometry Data Center
##OWNER=NIST Standard Reference Data Program
Collection (C) 2009 copyright by the U.S. Secretary of Commerce
on behalf of the United States of America. All rights reserved.
##CAS REGISTRY NO=27301-54-8
##MOLFORM=C 5 H 8 O
##$NIST SOURCE=MSDC-IR
##SPECTROMETER/DATA SYSTEM=HP-GC/MS/IRD
##STATE=gas
##XUNITS=1/CM
##YUNITS=ABSORBANCE
##XFACTOR=1.0
##YFACTOR=0.000001100
##DELTAX=4.0
##FIRSTX=550.0
##LASTX=3846.0
##FIRSTY=0.000850
##MAXX=3846
##MINX=550
##MAXY=0.011
##MINY=0
##NPOINTS=825
##XYDATA=(X++(Y..Y))
550.0 773 658 490 277 217 175 102 115 155 160
590.0 126 146 166 222 265 288 295 304 349 412
630.0 517 566 527 541 594 570 552 558 484 443
670.0 451 421 394 387 360 386 420 420 423 483
710.0 580 662 714 709 722 689 667 648 570 490
750.0 442 387 306 252 246 227 210 168 153 181
790.0 159 109 89 102 145 156 186 244 269 277
830.0 313 344 386 483 576 675 790 964 1182 1439
870.0 1796 2274 2727 2982 3060 3019 2967 2787 2347 1814
910.0 1358 1035 839 718 628 615 607 628 736 836
950.0 947 1146 1419 1727 2138 2652 3213 3833 4368 4722
990.0 4853 4864 4925 4790 4360 3788 3251 2820 2504 2345
1030.0 2327 2532 2933 3494 4237 5128 6099 7160 8228 9110
1070.0 9709 10000 9843 9195 8247 7063 5761 4515 3486 2771
1110.0 2296 2037 1935 1910 2003 2179 2404 2733 3079 3354
1150.0 3581 3710 3759 3691 3488 3197 2836 2503 2200 1959
1190.0 1801 1653 1521 1453 1419 1420 1442 1493 1601 1739
1230.0 1873 2039 2228 2388 2501 2578 2610 2618 2567 2442
1270.0 2323 2220 2133 2080 2051 2040 2061 2116 2218 2389
1310.0 2611 2899 3257 3711 4261 4903 5585 6260 7011 7801
1350.0 8443 8846 9022 8944 8713 8354 7748 6865 5947 5137
1390.0 4350 3546 2844 2403 2146 1907 1831 1904 1823 1710
1430.0 1728 1757 1724 1748 1845 1869 1848 1849 1765 1543
1470.0 1370 1247 1092 980 928 869 836 843 829 746
1510.0 653 613 580 532 497 490 487 479 496 499
1550.0 472 435 392 361 347 350 347 303 265 264
1590.0 270 252 245 245 218 204 205 199 191 172
1630.0 150 143 133 125 129 131 119 103 100 105
1670.0 107 107 109 117 121 117 123 107 113 122
1710.0 103 78 72 67 65 55 56 69 72 66
1750.0 66 64 64 73 89 100 93 92 82 60
1790.0 62 59 37 32 33 36 30 14 27 32
1830.0 32 41 34 41 43 45 51 57 84 93
1870.0 89 99 105 95 100 85 78 86 88 84
1910.0 63 49 35 47 46 41 49 51 49 45
1950.0 53 58 60 60 53 50 52 50 56 49
1990.0 33 18 2 1 0 10 25 23 25 40
2030.0 49 44 37 59 97 103 95 92 90 93
2070.0 89 64 38 24 27 33 44 56 59 56
2110.0 49 44 57 73 73 75 72 70 82 102
2150.0 110 98 67 64 89 88 94 133 162 185
2190.0 210 245 291 365 440 496 548 606 678 740
2230.0 809 886 964 1017 1046 1028 983 914 813 687
2270.0 559 439 357 303 274 266 257 247 254 254
2310.0 236 226 213 200 185 171 153 129 115 111
2350.0 115 134 137 126 114 107 110 103 97 99
2390.0 90 84 96 97 100 113 110 117 124 128
2430.0 154 166 155 150 150 153 169 187 170 150
2470.0 148 135 138 144 130 120 119 124 110 109
2510.0 148 149 119 116 131 145 138 138 139 130
2550.0 130 118 119 128 127 135 145 151 143 162
2590.0 186 187 192 212 219 206 208 209 200 183
2630.0 170 167 141 138 151 135 133 139 141 148
2670.0 163 161 160 174 167 164 171 166 176 193
2710.0 196 210 229 255 278 299 321 354 391 402
2750.0 417 413 408 392 343 337 320 288 299 295
2790.0 295 330 363 397 406 394 418 461 501 524
2830.0 549 597 675 782 937 1130 1364 1685 2115 2628
2870.0 3089 3426 3694 3978 4144 4108 3985 3890 3852 3817
2910.0 3818 3950 4340 5079 5909 6311 6216 6047 5904 5625
2950.0 4836 3813 3200 3047 3248 3830 4639 5737 6773 7291
2990.0 7254 6802 6302 5480 4301 3210 2316 1783 1444 1191
3030.0 1015 921 917 815 686 625 590 578 574 565
3070.0 516 459 416 387 383 380 376 402 402 366
3110.0 356 350 330 310 291 265 222 207 201 174
3150.0 149 131 135 160 174 169 156 136 156 160
3190.0 151 174 187 199 187 172 193 198 202 192
3230.0 168 178 175 154 145 148 146 132 127 106
3270.0 99 118 106 111 137 142 128 119 120 138
3310.0 152 158 153 134 157 168 147 159 147 120
3350.0 146 156 154 163 171 199 228 221 219 234
3390.0 233 216 185 167 169 191 179 178 198 181
3430.0 167 167 186 164 167 175 187 226 209 196
3470.0 199 189 179 168 165 178 193 213 242 236
3510.0 243 266 267 262 257 256 241 237 229 226
3550.0 221 207 186 157 149 140 165 181 196 212
3590.0 180 206 257 288 315 375 479 640 849 1091
3630.0 1379 1704 2050 2293 2402 2418 2418 2390 2232 1912
3670.0 1547 1243 962 696 483 386 337 237 210 222
3710.0 202 189 185 189 183 201 193 172 164 192
3750.0 238 213 245 256 220 254 281 278 266 252
3790.0 227 252 288 280 261 250 237 223 200 190
3830.0 199 229 241 221 246
##END=
