##TITLE=1-Pentene
##JCAMP-DX=4.24
##DATA TYPE=INFRARED SPECTRUM
##ORIGIN=NIST Mass Spectrometry Data Center
##OWNER=NIST Standard Reference Data Program
Collection (C) 2009 copyright by the U.S. Secretary of Commerce
on behalf of the United States of America. All rights reserved.
##CAS REGISTRY NO=109-67-1
##MOLFORM=C 5 H 10
##$NIST SOURCE=MSDC-IR
##SPECTROMETER/DATA SYSTEM=HP-GC/MS/IRD
##STATE=gas
##XUNITS=1/CM
##YUNITS=ABSORBANCE
##XFACTOR=1.0
##YFACTOR=0.000002900
##DELTAX=4.0
##FIRSTX=550.0
##LASTX=3846.0
##FIRSTY=0.000600
##MAXX=3846
##MINX=550
##MAXY=0.029
##MINY=0
##NPOINTS=825
##XYDATA=(X++(Y..Y))
550.0 207 103 43 48 14 21 50 80 59 110
590.0 181 208 259 324 399 454 488 495 500 530
630.0 536 507 453 394 358 349 307 240 187 150
670.0 147 138 112 102 87 80 84 75 72 86
710.0 80 66 81 79 68 95 122 131 154 169
750.0 193 244 256 255 270 248 222 226 200 163
790.0 131 106 96 113 128 121 135 157 170 214
830.0 239 265 323 365 399 432 478 572 669 746
870.0 850 995 1171 1365 1566 1812 2127 2462 2765 2994
910.0 3199 3296 3216 3127 2926 2569 2206 1882 1607 1391
950.0 1220 1098 1036 1025 1038 1084 1171 1267 1349 1428
990.0 1515 1564 1579 1535 1418 1284 1145 1000 861 752
1030.0 658 578 518 460 420 409 390 353 328 312
1070.0 286 264 257 254 247 238 208 182 168 145
1110.0 134 116 85 88 106 126 140 128 134 132
1150.0 134 140 136 132 118 133 142 117 101 105
1190.0 101 81 81 89 85 86 101 119 117 128
1230.0 140 132 132 138 149 161 186 214 225 231
1270.0 233 228 234 236 223 212 208 196 198 219
1310.0 230 243 270 293 328 362 376 390 389 383
1350.0 383 372 356 360 389 435 491 542 566 588
1390.0 649 700 687 672 671 676 694 738 810 886
1430.0 961 1042 1125 1208 1279 1319 1344 1335 1284 1184
1470.0 1077 987 894 805 700 605 517 434 359 312
1510.0 281 252 231 220 204 189 177 169 171 168
1550.0 155 145 140 138 139 137 136 143 149 159
1590.0 184 210 243 284 339 421 518 665 859 1056
1630.0 1221 1313 1338 1320 1293 1260 1120 852 572 390
1670.0 285 217 182 170 149 119 111 102 87 80
1710.0 72 69 67 61 63 61 64 65 53 44
1750.0 51 54 48 51 51 45 52 65 63 60
1790.0 72 87 104 132 174 224 278 327 353 351
1830.0 351 356 352 331 282 216 160 125 108 88
1870.0 61 55 53 37 35 35 25 21 23 30
1910.0 31 26 24 26 24 21 23 25 22 25
1950.0 39 46 47 55 52 45 56 53 46 46
1990.0 44 32 26 27 18 13 17 19 20 24
2030.0 25 26 30 25 28 37 30 27 29 24
2070.0 23 23 20 18 22 25 20 20 22 9
2110.0 4 13 17 7 4 11 17 15 3 0
2150.0 13 16 19 17 11 19 25 25 24 25
2190.0 23 22 24 26 24 15 19 22 18 18
2230.0 13 17 26 33 28 14 12 22 27 24
2270.0 25 25 23 23 18 18 21 30 34 41
2310.0 46 45 49 55 49 42 44 50 43 34
2350.0 39 38 37 39 35 34 38 37 33 40
2390.0 44 43 49 48 45 40 38 37 38 53
2430.0 52 47 43 40 45 48 46 44 44 38
2470.0 34 43 46 48 55 54 50 46 44 50
2510.0 64 74 76 69 65 59 60 69 74 74
2550.0 72 70 73 78 83 87 88 89 88 94
2590.0 98 96 94 93 89 94 97 88 92 96
2630.0 98 100 109 116 112 108 121 125 127 128
2670.0 129 135 139 146 140 147 153 135 136 152
2710.0 155 157 160 170 194 209 213 219 227 252
2750.0 261 257 256 257 267 275 291 298 306 326
2790.0 352 389 427 466 511 567 643 741 858 996
2830.0 1169 1355 1543 1734 1955 2206 2480 2779 3110 3476
2870.0 3893 4303 4562 4681 4843 5100 5338 5520 5684 5910
2910.0 6208 6586 7063 7592 8165 8731 9092 9218 9306 9430
2950.0 9565 9725 9867 10000 9947 9411 8920 8577 8053 7340
2990.0 6388 5439 4622 3956 3414 2945 2566 2252 1970 1721
3030.0 1529 1403 1325 1284 1297 1353 1418 1512 1663 1861
3070.0 2089 2335 2453 2454 2418 2301 2206 2044 1710 1344
3110.0 1044 825 669 559 484 424 365 326 308 289
3150.0 266 243 229 234 239 237 219 199 197 196
3190.0 189 188 175 151 154 151 135 138 135 103
3230.0 92 88 85 85 89 83 62 55 56 48
3270.0 56 72 64 68 85 90 83 74 66 51
3310.0 58 70 68 62 62 59 39 56 69 55
3350.0 62 76 76 59 48 50 48 38 38 28
3390.0 18 20 22 21 33 42 48 35 18 21
3430.0 30 39 34 26 29 43 36 28 27 15
3470.0 24 31 13 23 49 34 20 38 52 48
3510.0 26 26 43 54 58 38 35 35 20 13
3550.0 32 46 39 18 15 41 54 60 52 28
3590.0 22 39 51 35 28 38 40 29 30 36
3630.0 25 31 43 34 39 42 43 49 47 45
3670.0 39 52 56 42 37 38 45 39 48 59
3710.0 48 45 59 61 49 37 35 33 51 62
3750.0 42 46 57 43 30 47 55 58 56 55
3790.0 48 56 65 50 44 49 58 61 59 57
3830.0 73 88 73 59 58
##END=
