##TITLE=1,2-Butadiene
##JCAMP-DX=4.24
##DATA TYPE=INFRARED SPECTRUM
##ORIGIN=NIST Mass Spectrometry Data Center
##OWNER=NIST Standard Reference Data Program
Collection (C) 2009 copyright by the U.S. Secretary of Commerce
on behalf of the United States of America. All rights reserved.
##CAS REGISTRY NO=590-19-2
##MOLFORM=C 4 H 6
##$NIST SOURCE=MSDC-IR
##SPECTROMETER/DATA SYSTEM=HP-GC/MS/IRD
##STATE=gas
##XUNITS=1/CM
##YUNITS=ABSORBANCE
##XFACTOR=1.0
##YFACTOR=0.000001800
##DELTAX=4.0
##FIRSTX=550.0
##LASTX=3846.0
##FIRSTY=0.002428
##MAXX=3846
##MINX=550
##MAXY=0.018
##MINY=0
##NPOINTS=825
##XYDATA=(X++(Y..Y))
550.0 1349 1269 1337 1360 1296 1160 1052 905 759 620
590.0 519 458 378 348 349 309 294 341 287 211
630.0 249 210 151 164 148 98 64 66 58 112
670.0 165 139 112 120 164 134 84 106 127 107
710.0 96 79 76 63 68 94 106 124 140 211
750.0 263 300 342 400 524 659 800 946 1148 1430
790.0 1744 2091 2459 2894 3392 3970 4547 5205 5944 6658
830.0 7326 7776 7935 7998 8125 8543 9465 10000 9450 8632
870.0 7927 7211 6558 5939 5289 4584 3839 3142 2574 2080
910.0 1669 1344 1032 789 621 492 384 290 239 187
950.0 177 154 144 176 174 183 204 225 246 265
990.0 295 336 398 417 416 445 439 421 483 549
1030.0 562 576 616 646 648 669 690 715 723 666
1070.0 611 601 619 662 682 656 623 565 529 507
1110.0 447 429 413 356 325 286 272 264 225 221
1150.0 215 212 225 246 232 197 185 169 137 102
1190.0 96 110 111 82 59 76 59 24 15 19
1230.0 23 5 18 49 69 105 146 173 203 232
1270.0 249 274 301 341 388 455 534 630 809 1049
1310.0 1296 1522 1627 1623 1662 1724 1804 1928 1950 1827
1350.0 1634 1456 1372 1354 1338 1316 1327 1384 1510 1638
1390.0 1668 1652 1656 1687 1709 1728 1814 1950 2093 2233
1430.0 2303 2226 2112 2003 1972 2130 2142 1908 1615 1321
1470.0 1114 996 916 829 769 732 684 640 617 590
1510.0 546 529 519 498 481 473 473 482 468 416
1550.0 387 397 410 385 354 319 311 301 269 249
1590.0 245 230 211 199 193 185 195 179 146 141
1630.0 137 153 145 136 166 206 232 256 295 354
1670.0 451 571 692 839 942 989 1033 1066 1101 1100
1710.0 1063 981 887 757 619 503 391 294 221 162
1750.0 122 90 72 62 50 42 36 23 10 16
1790.0 21 9 0 7 21 26 14 10 20 26
1830.0 27 27 37 57 67 81 92 98 125 172
1870.0 199 221 265 311 352 396 466 581 728 891
1910.0 1090 1364 1726 2146 2617 3114 3613 4080 4491 4823
1950.0 5021 5080 5005 4856 4614 4223 3698 3067 2399 1780
1990.0 1311 988 745 579 477 414 360 297 241 190
2030.0 155 118 82 84 78 66 61 58 53 58
2070.0 57 39 32 35 37 36 37 40 18 6
2110.0 20 28 21 11 7 10 6 0 15 23
2150.0 12 14 11 11 15 7 8 8 5 0
2190.0 10 21 7 4 11 13 12 31 39 25
2230.0 31 49 42 53 49 26 30 36 34 22
2270.0 21 25 17 19 17 18 20 19 21 22
2310.0 16 2 16 33 37 30 38 55 47 34
2350.0 33 42 56 53 44 44 44 43 45 53
2390.0 56 57 60 59 58 53 49 60 81 89
2430.0 93 106 106 102 94 95 110 108 103 99
2470.0 100 93 79 79 86 86 93 91 91 97
2510.0 79 67 59 56 70 73 70 68 61 68
2550.0 54 41 53 44 41 36 27 42 45 24
2590.0 21 31 29 28 26 24 23 24 27 34
2630.0 50 51 44 51 69 62 48 38 38 50
2670.0 58 57 36 20 37 69 72 72 103 132
2710.0 142 165 211 259 270 267 283 297 310 336
2750.0 348 320 283 259 256 267 283 307 333 347
2790.0 354 365 390 431 486 541 569 598 631 679
2830.0 742 816 904 1013 1169 1379 1668 2017 2403 2742
2870.0 2960 3014 3002 3148 3386 3593 3721 3801 3926 4170
2910.0 4479 4772 5046 5459 5899 6026 5827 5631 5598 5717
2950.0 5724 5575 5333 4629 4030 3937 4070 4327 4596 4806
2990.0 4920 4816 4569 4434 4343 4367 4317 3976 3482 3009
3030.0 2649 2410 2246 2116 2025 1961 1905 1874 1853 1812
3070.0 1798 1710 1544 1456 1374 1279 1218 1136 1033 920
3110.0 829 759 682 604 518 438 374 325 291 258
3150.0 212 191 182 166 165 154 129 126 121 128
3190.0 117 127 130 98 92 86 71 70 86 59
3230.0 50 84 84 72 63 69 88 68 71 107
3270.0 105 101 102 100 80 84 124 95 50 56
3310.0 72 76 85 59 37 32 37 58 52 38
3350.0 37 32 40 43 42 60 59 58 49 60
3390.0 75 62 76 63 65 49 43 81 77 46
3430.0 50 56 30 44 50 59 61 62 56 65
3470.0 59 49 51 51 59 64 78 39 41 58
3510.0 24 28 35 44 46 46 33 30 40 49
3550.0 71 55 38 40 37 15 1 21 57 41
3590.0 38 72 52 36 31 40 43 48 76 83
3630.0 101 78 41 30 53 78 39 29 19 36
3670.0 61 72 58 20 39 75 70 33 14 9
3710.0 13 37 49 37 11 42 38 20 72 101
3750.0 101 76 67 62 29 22 51 75 71 54
3790.0 64 73 82 71 46 33 50 92 96 79
3830.0 75 88 123 104 62
##END=
