##TITLE=4-Aminobutanol
##JCAMP-DX=4.24
##DATA TYPE=INFRARED SPECTRUM
##ORIGIN=NIST Mass Spectrometry Data Center
##OWNER=NIST Standard Reference Data Program
Collection (C) 2009 copyright by the U.S. Secretary of Commerce
on behalf of the United States of America. All rights reserved.
##CAS REGISTRY NO=13325-10-5
##MOLFORM=C 4 H 11 N O
##$NIST SOURCE=MSDC-IR
##SPECTROMETER/DATA SYSTEM=HP-GC/MS/IRD
##STATE=gas
##XUNITS=1/CM
##YUNITS=ABSORBANCE
##XFACTOR=1.0
##YFACTOR=0.000005800
##DELTAX=4.0
##FIRSTX=550.0
##LASTX=3846.0
##FIRSTY=0.001902
##MAXX=3846
##MINX=550
##MAXY=0.058
##MINY=0
##NPOINTS=825
##XYDATA=(X++(Y..Y))
550.0 328 283 29 83 58 53 60 73 82 91
590.0 99 107 113 118 130 144 158 172 182 197
630.0 214 230 244 258 276 296 325 350 370 400
670.0 423 444 482 519 555 600 649 712 786 864
710.0 956 1072 1208 1368 1545 1726 1911 2094 2270 2435
750.0 2588 2721 2833 2927 2990 3000 2946 2828 2662 2457
790.0 2227 1985 1761 1579 1424 1296 1186 1091 1005 929
830.0 864 806 760 729 701 687 678 660 648 644
870.0 631 614 602 591 577 561 551 550 553 568
910.0 591 612 645 682 722 763 796 829 868 909
950.0 950 992 1040 1096 1149 1199 1263 1343 1432 1536
990.0 1657 1793 1951 2127 2321 2538 2785 3060 3358 3673
1030.0 4013 4377 4719 5008 5206 5270 5174 4907 4493 3999
1070.0 3485 3008 2603 2272 1995 1753 1547 1376 1230 1099
1110.0 978 872 786 715 664 627 596 563 539 518
1150.0 503 496 490 487 485 486 496 510 522 533
1190.0 547 572 597 614 636 659 677 692 701 712
1230.0 723 726 725 721 724 727 729 732 735 735
1270.0 733 726 718 710 699 686 672 656 642 631
1310.0 625 623 626 638 659 689 724 766 808 849
1350.0 901 957 1020 1100 1192 1299 1416 1513 1574 1591
1390.0 1551 1462 1330 1168 1007 874 784 733 708 707
1430.0 728 759 791 814 831 832 824 806 781 755
1470.0 729 689 637 580 519 440 353 284 233 204
1510.0 178 155 142 134 127 123 125 129 135 141
1550.0 143 153 167 176 185 201 223 246 272 308
1590.0 349 403 472 550 642 741 826 884 906 892
1630.0 847 770 663 550 447 363 291 228 183 147
1670.0 120 98 78 65 50 39 34 33 26 21
1710.0 19 17 17 13 11 11 12 10 7 6
1750.0 9 9 9 9 8 9 9 11 12 12
1790.0 15 14 15 19 19 21 22 23 27 28
1830.0 26 25 26 25 23 19 16 14 11 11
1870.0 9 6 2 0 0 1 0 1 1 0
1910.0 1 3 5 4 3 4 6 6 9 8
1950.0 9 11 11 10 9 10 11 14 15 18
1990.0 20 19 19 22 23 26 31 34 35 39
2030.0 41 43 46 49 51 50 47 47 49 50
2070.0 49 48 48 49 49 47 46 46 44 47
2110.0 48 49 48 50 48 47 49 49 50 51
2150.0 50 50 53 53 51 52 51 53 55 54
2190.0 55 54 53 55 57 58 57 57 57 55
2230.0 58 59 58 56 56 57 56 57 57 58
2270.0 62 63 61 61 63 63 65 64 64 66
2310.0 68 69 68 69 69 70 71 72 71 69
2350.0 65 68 74 75 73 72 69 67 65 64
2390.0 65 62 60 60 62 66 66 66 66 67
2430.0 67 67 69 67 66 67 69 67 65 67
2470.0 66 64 63 64 64 63 66 67 66 65
2510.0 66 68 71 73 71 71 75 77 78 82
2550.0 80 78 83 88 92 94 96 95 96 101
2590.0 108 113 116 120 122 126 132 137 142 151
2630.0 160 168 176 187 193 203 216 223 235 251
2670.0 265 277 294 306 316 329 345 359 374 389
2710.0 405 419 432 450 469 491 510 530 553 572
2750.0 587 604 617 626 640 656 668 686 709 734
2790.0 763 808 855 916 997 1096 1215 1361 1543 1760
2830.0 2021 2330 2682 3072 3481 3897 4311 4697 5043 5332
2870.0 5552 5701 5772 5781 5764 5754 5796 5932 6197 6598
2910.0 7116 7706 8325 8940 9492 9865 10000 9910 9557 8945
2950.0 8157 7268 6340 5424 4573 3801 3115 2520 2023 1618
2990.0 1298 1044 846 704 596 506 438 384 338 303
3030.0 276 247 220 199 179 161 149 137 127 117
3070.0 107 101 96 92 88 84 81 76 73 72
3110.0 70 68 62 62 63 67 66 65 65 62
3150.0 61 63 65 67 68 70 71 70 69 63
3190.0 62 66 66 68 65 61 64 68 66 65
3230.0 61 58 60 59 59 60 58 59 58 54
3270.0 55 59 60 60 65 69 68 72 77 83
3310.0 89 95 106 120 136 150 176 211 238 260
3350.0 281 301 323 334 342 350 357 361 367 375
3390.0 380 377 378 379 378 381 370 364 355 341
3430.0 334 326 319 311 303 292 285 278 269 259
3470.0 251 244 234 222 213 203 190 178 169 158
3510.0 152 149 141 135 131 123 119 115 106 98
3550.0 93 89 85 86 89 92 85 80 84 92
3590.0 94 94 96 97 104 116 125 138 157 187
3630.0 228 272 329 405 508 636 758 876 987 1054
3670.0 1049 988 898 773 620 466 340 255 193 148
3710.0 116 93 75 63 52 45 46 45 41 41
3750.0 35 33 31 23 19 20 16 15 18 21
3790.0 19 20 18 16 20 26 23 21 29 29
3830.0 27 26 29 32 29
##END=
