##TITLE=Tetramethylhydrazine
##JCAMP-DX=4.24
##DATA TYPE=INFRARED SPECTRUM
##ORIGIN=NIST Mass Spectrometry Data Center
##OWNER=NIST Standard Reference Data Program
Collection (C) 2009 copyright by the U.S. Secretary of Commerce
on behalf of the United States of America. All rights reserved.
##CAS REGISTRY NO=6415-12-9
##MOLFORM=C 4 H 12 N 2
##$NIST SOURCE=MSDC-IR
##SPECTROMETER/DATA SYSTEM=HP-GC/MS/IRD
##STATE=gas
##XUNITS=1/CM
##YUNITS=ABSORBANCE
##XFACTOR=1.0
##YFACTOR=0.000006500
##DELTAX=4.0
##FIRSTX=550.0
##LASTX=3846.0
##FIRSTY=0.000481
##MAXX=3846
##MINX=550
##MAXY=0.065
##MINY=0
##NPOINTS=825
##XYDATA=(X++(Y..Y))
550.0 74 99 78 78 67 49 34 33 27 31
590.0 40 30 21 24 26 21 5 2 6 7
630.0 21 32 26 17 16 12 19 35 48 53
670.0 70 98 133 174 222 272 337 409 486 559
710.0 599 595 567 543 497 428 359 293 230 176
750.0 140 113 90 88 95 86 77 84 86 74
790.0 68 70 63 53 50 40 36 36 35 45
830.0 43 39 52 73 102 139 185 267 397 571
870.0 806 1077 1340 1557 1717 1843 1850 1711 1541 1336
910.0 1043 731 488 338 260 215 191 176 170 165
950.0 152 151 163 180 200 232 277 325 378 443
990.0 520 619 730 862 1005 1135 1252 1354 1441 1409
1030.0 1267 1138 1021 842 638 474 372 337 347 380
1070.0 429 478 528 587 616 603 574 535 491 454
1110.0 428 429 472 559 670 795 940 1096 1209 1235
1150.0 1209 1151 1031 863 713 593 502 441 407 400
1190.0 411 435 471 507 544 586 620 643 662 668
1230.0 646 606 562 513 455 392 329 277 230 196
1270.0 174 158 146 128 119 117 111 108 107 104
1310.0 100 94 90 86 84 87 83 81 85 86
1350.0 90 94 99 109 116 121 133 147 164 187
1390.0 207 226 257 287 324 377 442 519 646 830
1430.0 1046 1318 1700 2139 2516 2801 3034 3168 3126 2918
1470.0 2558 2174 1880 1594 1270 946 688 510 399 333
1510.0 281 245 218 199 182 161 146 134 119 106
1550.0 99 95 92 85 78 80 80 82 84 82
1590.0 79 74 73 68 69 71 68 66 67 66
1630.0 67 71 70 69 71 78 79 72 73 79
1670.0 82 79 78 81 82 78 74 72 71 64
1710.0 59 57 54 53 51 45 46 45 42 40
1750.0 34 29 28 28 29 29 22 17 16 16
1790.0 17 12 9 9 5 2 1 0 0 5
1830.0 7 12 17 19 21 26 30 37 42 44
1870.0 47 49 48 53 50 48 47 41 40 37
1910.0 36 36 35 33 28 28 25 19 18 19
1950.0 19 15 11 8 6 7 4 6 5 1
1990.0 3 3 1 1 3 2 2 5 2 1
2030.0 3 3 6 13 16 17 21 25 27 28
2070.0 33 38 40 47 57 61 62 63 69 71
2110.0 69 72 68 61 62 64 61 56 53 48
2150.0 41 33 27 31 32 23 20 20 20 15
2190.0 15 22 21 17 16 16 18 17 14 13
2230.0 20 18 11 13 19 18 15 14 15 15
2270.0 13 9 3 3 7 7 10 9 6 9
2310.0 9 9 12 14 16 17 12 15 24 22
2350.0 19 22 24 25 24 31 31 28 37 48
2390.0 51 55 67 69 67 68 64 62 63 62
2430.0 57 61 66 67 69 73 82 86 88 93
2470.0 102 107 113 109 111 116 112 104 98 98
2510.0 102 106 113 119 115 110 116 126 127 128
2550.0 132 138 143 147 147 146 144 147 154 162
2590.0 172 174 173 173 175 178 181 178 182 189
2630.0 193 193 201 214 226 241 251 269 287 304
2670.0 318 332 344 356 356 356 372 385 395 408
2710.0 422 445 476 511 554 611 691 800 966 1217
2750.0 1579 2069 2662 3289 3886 4494 5163 5596 5666 5584
2790.0 5532 5547 5596 5733 6062 6668 7389 7945 8354 8680
2830.0 8888 8977 8858 8536 8160 7804 7441 7056 6703 6372
2870.0 6022 5683 5406 5152 4881 4597 4342 4141 3997 3895
2910.0 3848 3893 4045 4373 4972 5854 6889 7786 8367 9148
2950.0 10000 9796 9195 8970 8676 8105 7367 6968 6840 6248
2990.0 5831 5638 4843 3817 3019 2389 1832 1370 1025 794
3030.0 652 572 519 487 469 458 449 447 439 425
3070.0 423 418 401 379 363 362 351 340 331 317
3110.0 311 308 284 261 252 249 244 234 223 213
3150.0 210 208 201 201 198 191 188 191 186 175
3190.0 178 182 189 190 182 168 159 162 158 146
3230.0 132 114 97 86 72 70 68 63 51 41
3270.0 44 49 46 38 41 48 49 48 40 37
3310.0 42 37 38 48 49 57 51 35 44 46
3350.0 38 36 34 35 36 37 33 21 17 31
3390.0 37 31 32 28 27 28 28 31 32 42
3430.0 49 57 71 64 48 44 42 31 27 28
3470.0 22 22 24 21 20 20 11 7 8 2
3510.0 6 1 6 25 29 19 4 5 10 7
3550.0 6 14 9 3 2 10 15 11 6 10
3590.0 13 11 7 17 21 15 18 11 7 16
3630.0 17 19 14 21 26 30 23 23 26 27
3670.0 29 18 21 36 28 20 25 15 8 25
3710.0 29 29 28 26 26 21 25 28 24 23
3750.0 12 25 40 37 33 21 17 28 27 10
3790.0 16 27 32 37 37 42 39 37 43 40
3830.0 41 49 55 49 43
##END=
