##TITLE=1,3-Cyclohexadiene
##JCAMP-DX=4.24
##DATA TYPE=INFRARED SPECTRUM
##ORIGIN=NIST Mass Spectrometry Data Center
##OWNER=NIST Standard Reference Data Program
Collection (C) 2009 copyright by the U.S. Secretary of Commerce
on behalf of the United States of America. All rights reserved.
##CAS REGISTRY NO=592-57-4
##MOLFORM=C 6 H 8
##$NIST SOURCE=MSDC-IR
##SPECTROMETER/DATA SYSTEM=HP-GC/MS/IRD
##STATE=gas
##XUNITS=1/CM
##YUNITS=ABSORBANCE
##XFACTOR=1.0
##YFACTOR=0.000002300
##DELTAX=4.0
##FIRSTX=550.0
##LASTX=3846.0
##FIRSTY=0.000166
##MAXX=3846
##MINX=550
##MAXY=0.023
##MINY=0
##NPOINTS=825
##XYDATA=(X++(Y..Y))
550.0 72 186 191 185 182 163 132 178 215 144
590.0 158 181 147 139 244 366 548 840 1268 1840
630.0 2538 3289 3960 4487 5135 6625 9371 10000 8067 7237
670.0 6823 5858 4830 4003 3269 2507 1779 1194 743 475
710.0 342 315 317 406 585 739 843 1007 1426 1735
750.0 1571 1396 1357 1264 1087 855 612 446 331 213
790.0 137 99 55 39 46 61 55 59 59 61
830.0 105 114 119 126 128 122 113 135 147 127
870.0 100 67 41 54 91 128 225 359 499 656
910.0 743 788 853 938 987 967 919 823 733 644
950.0 537 478 448 388 365 375 345 321 330 333
990.0 330 356 384 392 378 350 323 288 242 232
1030.0 259 293 288 260 265 279 284 260 243 256
1070.0 231 169 131 84 58 57 38 24 41 45
1110.0 42 47 57 90 105 111 133 211 293 346
1150.0 367 401 467 609 664 521 487 516 412 277
1190.0 187 140 110 82 75 80 107 173 267 355
1230.0 419 440 435 434 435 427 402 327 219 133
1270.0 70 35 24 11 0 6 23 44 70 107
1310.0 134 149 160 171 167 155 156 161 155 144
1350.0 148 182 223 237 254 272 294 327 355 388
1390.0 415 440 488 552 624 711 812 905 1005 1209
1430.0 1510 1405 1069 1009 982 901 787 623 474 351
1470.0 250 183 140 122 115 104 105 104 103 108
1510.0 117 108 89 79 77 77 63 36 28 36
1550.0 58 78 86 114 143 185 226 271 335 387
1590.0 419 438 436 434 417 395 367 321 276 235
1630.0 189 132 111 104 105 117 135 167 199 231
1670.0 287 352 415 487 540 576 606 608 608 594
1710.0 550 492 426 360 286 219 173 126 94 83
1750.0 70 57 50 46 42 29 21 19 30 40
1790.0 32 30 25 18 7 15 20 11 20 20
1830.0 26 25 19 29 30 29 36 40 51 64
1870.0 79 103 123 136 158 168 162 158 144 140
1910.0 138 121 116 102 88 87 85 85 93 91
1950.0 98 104 106 96 91 96 86 82 71 63
1990.0 60 49 41 45 42 44 37 25 35 16
2030.0 15 25 29 30 15 14 15 25 43 42
2070.0 36 45 50 41 36 47 57 48 41 49
2110.0 61 64 49 40 47 47 42 35 30 30
2150.0 29 33 44 40 34 42 43 43 50 50
2190.0 52 52 46 45 40 44 55 56 43 35
2230.0 46 46 37 41 47 43 45 46 51 52
2270.0 46 39 36 31 36 45 38 38 51 56
2310.0 67 70 75 85 86 73 63 71 67 52
2350.0 51 59 57 57 44 32 41 46 36 28
2390.0 33 36 53 55 43 45 44 47 49 39
2430.0 37 50 52 38 23 29 23 1 10 30
2470.0 52 63 59 54 60 49 39 42 32 26
2510.0 25 26 38 40 32 26 21 19 18 27
2550.0 32 33 41 43 47 45 32 47 60 48
2590.0 36 40 44 55 71 87 115 122 112 127
2630.0 156 177 176 173 197 176 136 127 123 116
2670.0 100 106 112 107 111 126 156 153 126 133
2710.0 138 123 120 130 139 141 157 170 186 198
2750.0 202 205 216 222 219 222 246 295 335 398
2790.0 499 608 739 922 1220 1637 2199 2779 3212 3505
2830.0 3800 4491 5132 4875 4375 4077 3908 3856 3725 3545
2870.0 3398 3416 3966 5090 4827 3616 3193 3063 3021 2992
2910.0 3015 3130 3346 3857 4639 5502 6216 6549 6662 6780
2950.0 6607 6171 5763 5125 4093 2939 1986 1356 991 796
2990.0 737 725 736 795 927 1167 1575 2244 3202 4365
3030.0 5550 6449 7000 7476 7918 8071 7976 7687 6920 5686
3070.0 4414 3426 2659 1952 1330 904 625 436 339 281
3110.0 228 214 204 167 172 183 164 158 162 144
3150.0 126 142 161 147 137 105 80 85 98 128
3190.0 143 142 149 157 153 151 166 158 135 134
3230.0 114 111 126 110 99 76 62 74 82 92
3270.0 81 54 49 69 77 48 37 52 63 52
3310.0 48 73 87 73 53 54 64 63 87 104
3350.0 52 29 54 47 53 64 43 23 34 47
3390.0 36 34 38 32 32 55 54 63 89 70
3430.0 59 71 56 57 47 50 31 1 31 43
3470.0 44 34 13 34 69 71 44 13 20 42
3510.0 45 53 56 63 51 23 39 54 41 48
3550.0 63 66 33 13 24 23 19 55 95 95
3590.0 87 59 30 46 82 87 80 79 73 83
3630.0 94 72 55 36 36 37 25 30 18 9
3670.0 17 11 9 13 39 72 80 84 68 44
3710.0 58 70 57 67 86 84 61 36 10 57
3750.0 59 30 55 73 101 89 44 58 84 86
3790.0 73 48 43 51 52 64 76 51 63 83
3830.0 52 56 72 53 63
##END=
