##TITLE=1-Chloro-2,2-dimethylpropane
##JCAMP-DX=4.24
##DATA TYPE=INFRARED SPECTRUM
##ORIGIN=NIST Mass Spectrometry Data Center
##OWNER=NIST Standard Reference Data Program
Collection (C) 2009 copyright by the U.S. Secretary of Commerce
on behalf of the United States of America. All rights reserved.
##CAS REGISTRY NO=753-89-9
##MOLFORM=C 5 H 11 Cl
##$NIST SOURCE=MSDC-IR
##SPECTROMETER/DATA SYSTEM=HP-GC/MS/IRD
##STATE=gas
##XUNITS=1/CM
##YUNITS=ABSORBANCE
##XFACTOR=1.0
##YFACTOR=0.000003300
##DELTAX=4.0
##FIRSTX=550.0
##LASTX=3846.0
##FIRSTY=0.000109
##MAXX=3846
##MINX=550
##MAXY=0.033
##MINY=0
##NPOINTS=825
##XYDATA=(X++(Y..Y))
550.0 33 32 35 8 26 37 36 39 27 29
590.0 39 43 39 51 53 17 1 7 14 24
630.0 27 45 43 18 29 25 24 33 42 49
670.0 43 45 45 48 58 77 132 228 369 568
710.0 760 897 1017 1102 1065 1050 959 813 899 1207
750.0 1610 1991 2234 2362 2363 2154 1779 1260 719 381
790.0 231 169 141 112 71 43 50 51 49 61
830.0 61 60 49 49 62 51 50 73 100 125
870.0 164 216 292 398 534 708 885 1006 1057 1040
910.0 987 887 653 408 263 200 165 125 121 119
950.0 87 77 89 75 50 40 36 32 38 36
990.0 33 42 30 29 40 28 25 33 59 62
1030.0 61 75 65 66 70 71 55 32 37 54
1070.0 39 34 48 51 71 68 51 56 45 47
1110.0 49 56 73 95 124 139 180 197 187 198
1150.0 202 194 197 191 195 244 306 377 484 573
1190.0 635 692 702 661 595 516 424 335 292 294
1230.0 326 374 448 516 546 567 600 605 592 571
1270.0 552 603 731 874 960 1017 1043 972 869 680
1310.0 427 250 167 129 115 124 145 185 260 385
1350.0 563 797 1064 1322 1577 1792 1876 1793 1656 1529
1390.0 1376 1211 1042 878 788 672 496 378 356 404
1430.0 461 510 589 664 764 891 994 1112 1256 1420
1470.0 1577 1626 1576 1466 1295 1134 929 684 476 319
1510.0 210 146 103 75 60 47 37 30 21 23
1550.0 33 27 21 22 23 33 36 34 38 41
1590.0 47 45 42 45 37 32 33 26 27 34
1630.0 30 25 27 29 34 33 32 41 47 45
1670.0 35 30 37 35 29 32 30 29 32 33
1710.0 30 24 15 17 18 12 12 12 14 17
1750.0 14 15 13 8 7 11 17 20 20 19
1790.0 16 17 16 18 25 21 23 22 15 13
1830.0 16 18 18 17 21 22 17 16 16 12
1870.0 12 17 15 14 22 16 12 14 9 10
1910.0 15 16 14 11 9 11 8 6 17 23
1950.0 19 22 25 18 13 13 16 19 19 18
1990.0 10 12 14 12 11 12 17 22 17 15
2030.0 24 31 29 24 22 18 13 15 20 24
2070.0 18 12 13 11 12 18 19 13 9 12
2110.0 7 0 3 15 15 20 25 26 23 16
2150.0 12 11 13 15 16 11 4 11 11 1
2190.0 0 8 12 5 4 10 7 6 11 6
2230.0 2 6 8 9 5 2 2 3 6 12
2270.0 16 16 20 25 21 17 15 9 16 18
2310.0 9 6 6 9 13 18 9 2 7 4
2350.0 2 4 8 11 8 10 15 11 11 12
2390.0 15 16 19 22 21 15 9 10 17 17
2430.0 12 14 14 12 9 10 13 12 15 16
2470.0 15 9 0 7 16 11 12 16 11 11
2510.0 13 12 18 18 9 10 18 19 23 23
2550.0 24 23 29 37 27 26 29 19 14 15
2590.0 9 9 13 12 25 29 28 29 25 28
2630.0 41 40 31 31 32 46 49 41 38 42
2670.0 44 34 34 44 51 61 71 85 88 76
2710.0 84 107 121 137 151 159 159 155 148 147
2750.0 146 138 125 131 133 120 118 113 114 116
2790.0 124 144 158 172 192 211 234 256 276 307
2830.0 351 401 466 552 661 801 970 1193 1452 1717
2870.0 1967 2206 2402 2498 2566 2610 2638 2666 2703 2756
2910.0 2828 2904 2988 3135 3367 3692 4128 4692 5385 6222
2950.0 7161 8069 8872 9587 10000 9979 9467 8555 7492 6172
2990.0 4845 3694 2585 1720 1147 776 547 395 291 237
3030.0 218 197 179 188 190 188 186 177 182 190
3070.0 199 197 189 190 200 203 203 191 183 174
3110.0 151 142 137 140 136 114 122 126 114 119
3150.0 119 122 134 143 147 145 164 174 169 155
3190.0 149 146 150 153 141 149 149 132 125 120
3230.0 129 116 88 80 85 86 69 60 64 63
3270.0 64 59 44 51 68 62 66 67 62 62
3310.0 56 50 42 41 35 43 63 64 52 53
3350.0 49 49 65 80 72 70 75 75 74 57
3390.0 41 38 34 40 47 29 22 41 29 15
3430.0 41 54 43 40 45 49 49 34 21 21
3470.0 36 38 28 31 30 22 34 51 47 43
3510.0 51 45 32 19 18 30 35 25 32 48
3550.0 50 44 40 41 15 2 14 21 19 11
3590.0 15 21 27 26 35 35 23 29 42 41
3630.0 34 32 31 26 18 28 36 25 12 22
3670.0 32 32 41 52 45 26 15 19 27 34
3710.0 46 49 39 34 37 20 11 32 42 46
3750.0 17 10 33 39 39 30 29 34 47 41
3790.0 37 53 50 39 46 66 76 74 67 48
3830.0 41 63 64 51 77
##END=
