##TITLE=1,2-Dimethoxyethane
##JCAMP-DX=4.24
##DATA TYPE=INFRARED SPECTRUM
##ORIGIN=NIST Mass Spectrometry Data Center
##OWNER=NIST Standard Reference Data Program
Collection (C) 2009 copyright by the U.S. Secretary of Commerce
on behalf of the United States of America. All rights reserved.
##CAS REGISTRY NO=110-71-4
##MOLFORM=C 4 H 10 O 2
##$NIST SOURCE=MSDC-IR
##SPECTROMETER/DATA SYSTEM=HP-GC/MS/IRD
##STATE=gas
##XUNITS=1/CM
##YUNITS=ABSORBANCE
##XFACTOR=1.0
##YFACTOR=0.000006200
##DELTAX=4.0
##FIRSTX=550.0
##LASTX=3846.0
##FIRSTY=0.000998
##MAXX=3846
##MINX=550
##MAXY=0.062
##MINY=0
##NPOINTS=825
##XYDATA=(X++(Y..Y))
550.0 161 156 135 109 84 77 58 38 40 28
590.0 23 27 26 23 26 28 29 28 16 0
630.0 8 22 18 18 12 12 13 5 6 12
670.0 18 26 31 29 22 28 34 33 32 36
710.0 45 44 40 42 50 46 39 47 45 39
750.0 40 51 57 55 68 85 97 93 85 98
790.0 122 139 159 187 222 271 313 343 388 434
830.0 486 551 608 658 710 759 796 813 802 769
870.0 726 675 615 566 533 510 504 505 516 543
910.0 582 634 675 715 758 784 777 774 772 772
950.0 777 782 798 817 834 858 878 887 894 908
990.0 923 920 922 940 970 1020 1091 1167 1217 1249
1030.0 1266 1267 1248 1206 1156 1135 1164 1242 1367 1543
1070.0 1773 2048 2370 2751 3191 3691 4282 5003 5869 6844
1110.0 7817 8646 9309 9791 10000 9814 9156 8202 7205 6279
1150.0 5500 4888 4403 3990 3648 3394 3242 3197 3249 3359
1190.0 3438 3428 3352 3212 2964 2616 2244 1911 1642 1433
1230.0 1275 1161 1092 1046 1015 988 953 917 873 832
1270.0 800 776 754 735 725 719 704 676 639 600
1310.0 564 538 513 494 489 493 506 536 582 654
1350.0 750 842 894 902 884 850 805 699 562 458
1390.0 401 373 355 346 338 335 338 346 369 411
1430.0 471 547 641 757 905 1063 1191 1276 1302 1257
1470.0 1171 1047 902 763 637 532 451 386 334 290
1510.0 256 230 212 203 188 173 160 152 146 134
1550.0 126 121 117 116 113 104 99 98 97 96
1590.0 88 82 82 82 78 71 69 67 65 62
1630.0 59 62 59 52 50 52 48 47 47 48
1670.0 47 44 43 45 44 38 38 42 36 29
1710.0 24 21 21 18 15 13 12 13 12 8
1750.0 5 2 2 7 9 7 5 4 6 4
1790.0 2 0 1 3 5 2 2 2 0 0
1830.0 1 0 3 3 1 2 2 1 3 5
1870.0 3 5 6 6 12 16 18 17 20 23
1910.0 26 29 36 45 48 51 58 65 71 81
1950.0 90 94 98 102 104 105 110 115 113 111
1990.0 115 122 125 126 123 125 123 119 117 113
2030.0 113 118 118 119 119 119 122 130 132 127
2070.0 122 117 113 109 107 105 100 96 93 93
2110.0 95 90 87 85 80 76 75 72 72 63
2150.0 55 53 50 45 43 40 36 32 29 27
2190.0 27 25 20 16 18 21 16 10 10 13
2230.0 14 17 17 21 23 19 17 17 16 15
2270.0 15 14 8 5 6 7 11 10 3 1
2310.0 6 6 4 5 7 9 7 6 10 10
2350.0 7 8 10 11 14 15 17 13 13 18
2390.0 17 15 15 18 17 16 16 13 14 17
2430.0 16 17 15 7 7 10 8 9 8 9
2470.0 11 11 12 13 12 11 12 14 16 16
2510.0 16 17 22 27 31 29 30 30 33 39
2550.0 41 47 52 53 57 59 64 70 72 77
2590.0 86 98 103 104 106 106 103 102 106 107
2630.0 104 105 102 107 112 113 114 120 129 132
2670.0 136 149 160 171 182 196 217 246 272 298
2710.0 322 345 368 383 399 407 413 424 431 440
2750.0 455 478 509 550 593 647 712 789 887 1006
2790.0 1147 1330 1554 1833 2212 2699 3213 3650 3978 4247
2830.0 4460 4531 4463 4365 4312 4329 4424 4578 4780 5009
2870.0 5250 5494 5711 5878 6005 6070 6071 6036 5984 5922
2910.0 5862 5831 5845 5891 5923 5903 5791 5586 5307 4973
2950.0 4613 4263 3939 3659 3446 3326 3300 3341 3411 3409
2990.0 3292 3105 2900 2627 2217 1783 1436 1189 1003 861
3030.0 755 674 614 567 534 503 476 452 427 404
3070.0 387 368 346 327 309 290 271 256 245 231
3110.0 209 188 181 181 169 154 144 133 125 125
3150.0 114 98 93 92 87 82 76 74 85 89
3190.0 77 63 62 72 76 66 57 56 53 49
3230.0 45 48 48 47 50 44 41 43 37 38
3270.0 39 34 39 45 45 42 39 37 40 38
3310.0 37 43 36 32 29 34 38 34 37 35
3350.0 34 34 28 35 41 40 39 34 35 32
3390.0 30 35 35 32 22 20 28 38 38 27
3430.0 26 29 33 33 27 18 18 18 22 25
3470.0 21 22 24 28 29 21 19 22 30 28
3510.0 20 20 21 22 20 13 15 9 4 13
3550.0 10 8 14 14 16 16 15 6 4 16
3590.0 16 13 11 11 17 19 20 17 16 20
3630.0 25 27 26 24 27 28 24 23 28 30
3670.0 32 33 31 30 26 26 21 22 26 32
3710.0 39 37 38 37 37 39 32 29 40 47
3750.0 35 31 34 33 35 33 30 36 34 25
3790.0 27 38 44 41 33 34 44 45 40 40
3830.0 44 41 42 49 53
##END=
