##TITLE=2-Butene
##JCAMP-DX=4.24
##DATA TYPE=INFRARED SPECTRUM
##ORIGIN=NIST Mass Spectrometry Data Center
##OWNER=NIST Standard Reference Data Program
Collection (C) 2009 copyright by the U.S. Secretary of Commerce
on behalf of the United States of America. All rights reserved.
##CAS REGISTRY NO=107-01-7
##MOLFORM=C 4 H 8
##$NIST SOURCE=MSDC-IR
##SPECTROMETER/DATA SYSTEM=HP-GC/MS/IRD
##STATE=gas
##XUNITS=1/CM
##YUNITS=ABSORBANCE
##XFACTOR=1.0
##YFACTOR=0.000001100
##DELTAX=4.0
##FIRSTX=550.0
##LASTX=3846.0
##FIRSTY=0.000205
##MAXX=3846
##MINX=550
##MAXY=0.011
##MINY=0
##NPOINTS=825
##XYDATA=(X++(Y..Y))
550.0 186 247 192 182 232 233 333 368 240 265
590.0 332 316 339 279 227 170 150 271 375 437
630.0 475 546 679 826 969 1060 1183 1391 1598 1803
670.0 1917 1725 1508 1330 1201 1180 1097 912 731 603
710.0 484 421 399 234 148 149 145 135 95 132
750.0 129 67 44 15 31 76 69 80 94 91
790.0 76 75 77 35 23 107 174 145 136 152
830.0 127 125 134 88 104 161 185 210 246 286
870.0 312 307 290 351 441 461 501 567 639 780
910.0 975 1093 1219 1431 1599 1787 2023 2263 2458 2637
950.0 2944 3387 3947 4229 4051 3894 3778 3551 3373 3218
990.0 2918 2519 2154 1803 1496 1250 1065 974 881 784
1030.0 789 788 791 771 738 763 763 715 718 733
1070.0 658 569 485 408 342 289 250 201 171 181
1110.0 180 153 147 172 119 93 126 112 100 99
1150.0 96 43 37 97 135 99 104 114 115 123
1190.0 136 143 126 131 131 143 175 185 221 211
1230.0 169 210 227 226 266 268 272 297 243 243
1270.0 299 304 320 372 397 396 410 443 462 488
1310.0 529 562 537 502 480 469 506 544 577 604
1350.0 619 667 739 816 905 1027 1118 1176 1256 1377
1390.0 1531 1651 1674 1649 1655 1640 1623 1651 1649 1649
1430.0 1616 1635 1683 1761 1868 1819 1645 1496 1433 1459
1470.0 1522 1499 1413 1328 1248 1191 1097 1003 951 914
1510.0 874 812 757 722 682 626 578 548 527 498
1550.0 492 478 434 406 367 357 368 328 285 305
1590.0 330 333 337 326 347 397 397 383 413 440
1630.0 421 409 409 412 408 411 417 395 385 411
1670.0 444 428 411 408 408 402 363 349 349 341
1710.0 299 271 256 208 148 158 151 105 118 120
1750.0 106 108 126 146 152 151 144 130 141 150
1790.0 149 147 137 109 74 72 79 83 70 71
1830.0 72 43 22 22 31 38 44 48 55 53
1870.0 50 39 44 41 50 86 72 40 57 95
1910.0 92 66 75 94 89 93 96 82 72 70
1950.0 75 88 97 108 117 115 103 104 115 149
1990.0 171 156 140 143 145 138 130 111 63 59
2030.0 59 31 27 38 30 29 36 57 51 21
2070.0 21 16 24 27 8 9 12 7 1 0
2110.0 2 0 9 14 34 36 15 19 27 43
2150.0 57 31 19 14 25 37 35 41 32 27
2190.0 29 22 25 29 16 8 33 45 44 62
2230.0 54 24 27 52 43 34 48 69 65 56
2270.0 36 46 72 65 73 81 70 78 81 75
2310.0 81 75 81 72 58 78 94 97 99 111
2350.0 119 127 137 119 89 99 120 111 92 89
2390.0 90 108 117 130 149 157 180 182 169 149
2430.0 122 128 151 153 141 147 142 134 130 140
2470.0 149 134 130 128 108 111 124 108 80 104
2510.0 136 132 128 120 130 150 150 124 130 124
2550.0 102 89 87 117 134 109 105 126 130 117
2590.0 110 120 126 154 171 155 136 115 123 133
2630.0 126 115 140 170 157 153 138 133 139 155
2670.0 173 181 183 161 137 156 191 207 229 263
2710.0 279 285 336 399 450 503 501 489 527 549
2750.0 557 554 553 540 495 447 433 472 527 526
2790.0 515 557 592 616 683 735 770 831 921 1036
2830.0 1153 1291 1521 1783 2099 2635 3316 3982 4472 4663
2870.0 4791 5143 5666 6040 6278 6404 6498 6603 6786 7202
2910.0 7894 8672 9235 9396 9313 9353 9600 9850 9957 10000
2950.0 9539 8525 7835 7429 7028 6666 6614 6756 6760 6670
2990.0 6503 6413 6384 6330 6363 6429 6358 6177 5990 5833
3030.0 5794 5766 5596 5349 5039 4640 4184 3719 3286 2931
3070.0 2592 2266 2038 1825 1633 1456 1279 1138 1054 982
3110.0 890 838 773 671 617 560 490 475 439 401
3150.0 373 333 347 360 349 346 351 313 256 258
3190.0 236 247 257 204 188 185 198 258 283 251
3230.0 203 170 192 191 188 187 151 117 148 169
3270.0 130 129 127 89 103 119 131 121 105 121
3310.0 150 176 181 154 117 130 135 136 113 58
3350.0 90 171 137 73 89 103 99 91 93 101
3390.0 93 53 9 61 118 90 123 156 129 122
3430.0 79 105 188 123 78 112 141 125 95 104
3470.0 102 93 80 91 85 98 87 22 41 74
3510.0 26 28 64 65 77 68 83 113 131 129
3550.0 116 108 93 101 137 85 35 53 62 105
3590.0 121 108 129 126 94 93 133 122 54 112
3630.0 164 101 68 129 184 166 124 138 178 141
3670.0 140 153 108 94 144 153 115 71 74 115
3710.0 98 74 61 67 106 127 141 131 88 94
3750.0 96 104 150 148 141 119 126 160 115 98
3790.0 97 146 184 174 139 110 134 155 143 107
3830.0 120 147 155 197 193
##END=
