##TITLE=4-Pentyn-1-ol
##JCAMP-DX=4.24
##DATA TYPE=INFRARED SPECTRUM
##ORIGIN=NIST Mass Spectrometry Data Center
##OWNER=NIST Standard Reference Data Program
Collection (C) 2009 copyright by the U.S. Secretary of Commerce
on behalf of the United States of America. All rights reserved.
##CAS REGISTRY NO=5390-04-5
##MOLFORM=C 5 H 8 O
##$NIST SOURCE=MSDC-IR
##SPECTROMETER/DATA SYSTEM=HP-GC/MS/IRD
##STATE=gas
##XUNITS=1/CM
##YUNITS=ABSORBANCE
##XFACTOR=1.0
##YFACTOR=0.000001000
##DELTAX=4.0
##FIRSTX=550.0
##LASTX=3846.0
##FIRSTY=0.000416
##MAXX=3846
##MINX=550
##MAXY=0.01
##MINY=0
##NPOINTS=825
##XYDATA=(X++(Y..Y))
550.0 416 385 321 263 274 237 199 221 200 189
590.0 213 352 494 655 905 1287 1909 2754 3987 5658
630.0 8017 10000 9589 7749 5865 4125 2752 1810 1165 718
670.0 494 361 272 241 187 120 90 147 159 147
710.0 173 139 160 199 190 182 171 132 134 138
750.0 90 34 0 30 49 58 63 52 34 20
790.0 64 82 57 18 20 46 43 38 26 24
830.0 35 45 61 69 43 44 84 108 132 108
870.0 148 230 249 306 384 397 470 533 586 632
910.0 617 633 668 659 659 735 803 794 736 718
950.0 718 682 641 611 587 594 591 618 691 737
990.0 801 944 1107 1299 1481 1682 1937 2140 2346 2552
1030.0 2758 3003 3347 3714 4118 4483 4688 4783 4682 4420
1070.0 3942 3334 2787 2238 1757 1399 1101 911 784 648
1110.0 499 416 435 459 434 470 503 478 471 479
1150.0 472 509 566 541 550 600 600 616 643 623
1190.0 636 711 755 763 784 772 758 784 880 1068
1230.0 1322 1638 1973 2274 2449 2520 2568 2512 2314 2007
1270.0 1631 1310 1121 1004 922 878 823 782 750 728
1310.0 748 785 811 816 835 864 876 877 867 844
1350.0 821 803 793 802 799 802 827 851 871 895
1390.0 898 886 860 816 755 700 691 704 726 791
1430.0 879 929 969 974 940 880 805 722 645 594
1470.0 547 494 447 408 384 343 282 222 182 181
1510.0 157 132 139 125 95 92 101 88 74 78
1550.0 81 81 90 73 53 47 47 51 55 67
1590.0 55 49 57 54 29 16 23 24 26 30
1630.0 30 38 26 33 54 59 82 94 98 116
1670.0 118 116 118 105 86 64 64 47 37 39
1710.0 22 15 6 24 37 35 55 66 63 69
1750.0 90 64 46 57 53 46 40 25 16 33
1790.0 36 24 18 16 17 14 12 13 12 35
1830.0 32 11 15 26 19 16 26 35 38 43
1870.0 48 33 32 37 27 31 33 25 16 20
1910.0 36 41 42 40 28 10 8 21 35 33
1950.0 38 48 52 56 54 47 43 42 41 42
1990.0 43 47 55 52 48 40 44 47 43 38
2030.0 35 38 54 60 53 55 45 44 72 92
2070.0 83 87 96 104 132 161 198 236 292 360
2110.0 392 425 451 429 396 338 288 235 163 116
2150.0 79 41 31 30 26 29 36 38 53 63
2190.0 42 41 54 48 52 55 50 50 46 52
2230.0 51 44 39 39 49 57 52 52 48 44
2270.0 48 44 35 37 43 47 56 63 67 73
2310.0 71 57 45 38 54 47 47 64 44 27
2350.0 46 54 53 62 63 50 31 35 56 52
2390.0 39 51 48 29 35 54 53 44 27 34
2430.0 45 43 45 34 26 16 28 48 38 46
2470.0 51 60 54 24 27 26 11 17 30 23
2510.0 9 11 17 29 51 42 28 47 56 48
2550.0 47 58 65 53 46 41 40 35 51 71
2590.0 49 38 58 80 75 63 91 97 76 67
2630.0 82 112 105 95 98 115 136 131 124 134
2670.0 140 140 151 170 191 194 203 201 180 174
2710.0 184 207 226 222 223 234 243 235 259 264
2750.0 247 246 256 280 297 306 310 324 342 371
2790.0 383 365 371 386 383 418 461 494 527 566
2830.0 635 732 822 942 1093 1268 1429 1598 1800 2003
2870.0 2152 2309 2456 2592 2679 2716 2733 2735 2769 2827
2910.0 2954 3165 3450 3771 4088 4384 4684 4945 5121 5231
2950.0 5242 5100 4798 4370 3865 3293 2743 2265 1819 1472
2990.0 1178 933 728 571 443 331 287 285 265 226
3030.0 197 192 195 150 116 117 92 79 95 93
3070.0 89 112 119 73 70 88 63 71 79 60
3110.0 56 73 64 46 49 56 59 44 48 58
3150.0 40 41 57 59 53 13 27 29 24 54
3190.0 45 48 92 78 38 19 37 60 50 55
3230.0 66 92 126 113 63 50 80 123 152 177
3270.0 230 308 424 494 584 782 1065 1328 1466 1620
3310.0 1986 2645 3288 3390 3133 2933 3010 2955 2167 1277
3350.0 790 571 447 388 324 244 180 159 150 115
3390.0 82 63 64 51 43 34 27 39 39 33
3430.0 58 49 26 43 67 90 78 37 48 96
3470.0 72 74 70 69 80 105 127 69 59 88
3510.0 71 70 77 58 56 48 39 66 71 37
3550.0 31 69 65 36 49 45 56 69 92 109
3590.0 101 115 154 202 258 332 400 461 481 508
3630.0 551 617 612 600 653 708 801 949 1089 1143
3670.0 1121 1121 1073 964 792 625 534 429 306 245
3710.0 195 174 203 207 181 159 106 77 114 105
3750.0 72 74 111 130 78 43 45 66 88 94
3790.0 63 42 61 87 81 78 99 115 141 127
3830.0 91 84 104 112 55
##END=
