##TITLE=Trichloroacetonitrile
##JCAMP-DX=4.24
##DATA TYPE=INFRARED SPECTRUM
##ORIGIN=NIST Mass Spectrometry Data Center
##OWNER=NIST Standard Reference Data Program
Collection (C) 2009 copyright by the U.S. Secretary of Commerce
on behalf of the United States of America. All rights reserved.
##CAS REGISTRY NO=545-06-2
##MOLFORM=C 2 Cl 3 N
##$NIST SOURCE=MSDC-IR
##SPECTROMETER/DATA SYSTEM=HP-GC/MS/IRD
##STATE=gas
##XUNITS=1/CM
##YUNITS=ABSORBANCE
##XFACTOR=1.0
##YFACTOR=0.000004400
##DELTAX=4.0
##FIRSTX=550.0
##LASTX=3846.0
##FIRSTY=0.000101
##MAXX=3846
##MINX=550
##MAXY=0.044
##MINY=0
##NPOINTS=825
##XYDATA=(X++(Y..Y))
550.0 23 50 46 39 55 65 51 37 48 33
590.0 16 22 21 14 25 34 33 37 56 76
630.0 82 92 106 114 99 75 73 86 70 33
670.0 13 21 23 27 42 40 40 32 34 41
710.0 51 78 100 129 161 202 268 338 379 422
750.0 502 611 773 1019 1406 1981 2851 4134 5942 8096
790.0 9746 10000 8417 5308 2603 1309 715 433 266 174
830.0 141 98 70 64 45 33 39 41 47 53
870.0 50 56 62 75 80 55 39 39 39 27
910.0 31 33 47 74 62 69 114 145 178 217
950.0 245 286 322 350 388 400 365 296 221 156
990.0 104 89 100 122 178 283 430 631 807 903
1030.0 1037 1020 875 726 496 300 182 116 78 48
1070.0 52 55 37 36 50 49 40 39 50 38
1110.0 16 34 49 41 29 23 24 20 15 10
1150.0 15 11 0 8 9 17 30 15 2 6
1190.0 16 17 16 12 9 13 9 13 22 15
1230.0 13 21 28 30 21 20 23 20 22 29
1270.0 36 37 33 23 12 10 5 2 5 5
1310.0 4 9 11 5 1 0 1 9 9 6
1350.0 7 6 7 11 12 10 11 11 9 11
1390.0 11 12 15 15 18 14 10 18 22 20
1430.0 19 21 18 15 21 21 25 27 25 23
1470.0 25 31 28 24 21 23 28 30 25 26
1510.0 28 29 34 37 35 32 30 34 35 33
1550.0 34 39 44 38 40 47 52 54 48 49
1590.0 49 38 37 38 29 25 27 27 21 18
1630.0 18 15 14 18 16 17 18 14 18 18
1670.0 16 17 18 16 19 21 16 14 12 10
1710.0 9 10 11 3 1 12 16 10 10 4
1750.0 4 9 10 12 12 11 8 12 15 14
1790.0 16 18 19 21 24 20 18 29 31 29
1830.0 30 28 27 21 19 16 15 15 12 13
1870.0 13 12 15 18 13 8 8 12 17 11
1910.0 14 17 14 13 13 13 13 10 13 13
1950.0 7 9 9 11 16 17 11 8 12 12
1990.0 14 16 14 12 9 6 11 11 6 11
2030.0 15 20 17 9 8 9 13 19 21 19
2070.0 22 23 20 23 26 23 21 23 19 17
2110.0 14 14 15 11 16 12 8 14 16 13
2150.0 16 18 17 14 12 15 19 23 22 23
2190.0 22 15 18 23 22 29 46 72 97 135
2230.0 187 246 311 360 393 401 361 283 201 133
2270.0 68 28 18 18 20 26 28 25 21 18
2310.0 14 12 11 12 12 15 17 17 20 15
2350.0 13 18 20 26 28 24 22 22 33 41
2390.0 42 41 42 41 31 28 27 23 14 11
2430.0 21 20 16 17 20 22 16 7 11 13
2470.0 20 18 12 14 12 11 16 17 19 18
2510.0 14 14 18 28 24 13 18 18 10 13
2550.0 15 18 21 19 15 11 11 8 6 7
2590.0 14 18 15 12 16 16 13 12 9 10
2630.0 10 14 15 15 18 13 15 15 12 11
2670.0 15 19 8 11 18 25 17 12 19 18
2710.0 17 18 15 8 8 10 15 24 18 9
2750.0 13 17 17 9 6 10 4 9 12 20
2790.0 24 8 0 10 14 8 2 4 12 17
2830.0 21 24 27 26 23 20 18 20 27 30
2870.0 20 5 0 1 10 19 21 26 21 14
2910.0 21 34 34 25 24 20 11 19 28 19
2950.0 23 24 18 19 16 11 19 15 9 23
2990.0 26 22 18 14 7 13 19 16 18 23
3030.0 23 14 22 33 29 15 9 21 22 10
3070.0 13 32 27 13 19 21 28 32 28 19
3110.0 11 17 21 24 22 21 18 19 17 18
3150.0 30 39 36 29 30 26 24 18 13 23
3190.0 33 30 23 17 14 12 7 4 12 10
3230.0 13 6 1 14 21 24 26 34 24 14
3270.0 12 26 38 37 34 16 9 12 6 6
3310.0 20 20 9 19 28 20 32 42 34 26
3350.0 27 29 21 21 20 20 21 21 29 23
3390.0 17 25 26 19 18 20 14 13 15 13
3430.0 6 12 37 34 16 30 33 22 17 6
3470.0 12 18 29 44 27 12 13 11 21 32
3510.0 21 28 35 25 29 27 30 42 43 31
3550.0 23 9 4 19 37 30 17 27 37 32
3590.0 24 25 26 22 25 18 18 35 34 35
3630.0 28 30 37 44 42 17 18 29 31 38
3670.0 41 44 30 19 23 27 27 26 22 11
3710.0 5 13 23 30 22 27 48 35 27 26
3750.0 26 29 39 38 33 26 11 8 13 37
3790.0 41 35 31 31 36 47 38 25 40 50
3830.0 33 29 36 33 36
##END=
