##TITLE=Thiazole
##JCAMP-DX=4.24
##DATA TYPE=INFRARED SPECTRUM
##ORIGIN=NIST Mass Spectrometry Data Center
##OWNER=NIST Standard Reference Data Program
Collection (C) 2009 copyright by the U.S. Secretary of Commerce
on behalf of the United States of America. All rights reserved.
##CAS REGISTRY NO=288-47-1
##MOLFORM=C 3 H 3 N S
##$NIST SOURCE=MSDC-IR
##SPECTROMETER/DATA SYSTEM=HP-GC/MS/IRD
##STATE=gas
##XUNITS=1/CM
##YUNITS=ABSORBANCE
##XFACTOR=1.0
##YFACTOR=0.000001100
##DELTAX=4.0
##FIRSTX=550.0
##LASTX=3846.0
##FIRSTY=0.000281
##MAXX=3846
##MINX=550
##MAXY=0.011
##MINY=0
##NPOINTS=825
##XYDATA=(X++(Y..Y))
550.0 255 472 568 651 751 949 1144 1145 1208 1284
590.0 1493 1527 3107 4830 2719 1315 1475 1582 1759 1646
630.0 1390 979 756 649 417 255 291 249 207 240
670.0 369 575 750 941 1197 1449 1556 1663 1629 1778
710.0 2031 5530 6419 2537 1788 1961 2000 2029 1904 1691
750.0 1457 1445 1628 1930 2276 2603 2850 2918 2884 3193
790.0 4908 10000 9425 3866 3052 3242 3354 3440 3292 2970
830.0 2846 3071 3714 4656 5592 6229 6455 6936 7993 7670
870.0 6802 7328 7080 5474 3733 2309 1410 973 727 539
910.0 391 356 352 289 182 93 102 101 73 115
950.0 146 104 31 62 108 153 150 95 65 28
990.0 0 78 164 138 99 134 247 430 603 744
1030.0 856 856 936 1063 997 1006 1022 857 636 406
1070.0 260 242 229 209 254 289 356 423 502 675
1110.0 779 867 783 549 639 786 746 684 593 483
1150.0 333 262 213 142 168 171 102 73 94 161
1190.0 233 252 262 292 411 598 738 910 1169 1381
1230.0 1447 1217 921 1093 1452 1470 1243 999 734 478
1270.0 315 222 190 215 254 385 542 691 909 1071
1310.0 1128 1076 1062 1205 1113 1010 1080 1020 871 753
1350.0 752 925 1217 1549 1759 1828 1797 1918 2235 1877
1390.0 1763 1939 1717 1360 1022 837 808 840 812 752
1430.0 769 807 900 1078 1254 1392 1566 1841 2175 2470
1470.0 2674 2578 2581 2813 2508 2341 2450 2237 1792 1251
1510.0 794 539 430 369 323 262 217 191 149 132
1550.0 146 190 239 290 351 447 584 644 651 699
1590.0 745 794 821 814 749 690 658 586 461 316
1630.0 231 194 172 134 106 120 127 116 123 139
1670.0 149 151 158 153 121 151 182 171 131 93
1710.0 98 90 72 46 47 73 105 115 130 162
1750.0 220 280 281 271 289 309 292 262 273 267
1790.0 222 164 112 81 47 34 53 48 34 29
1830.0 19 32 36 41 41 47 52 62 71 55
1870.0 31 30 48 40 49 67 53 50 45 47
1910.0 79 71 48 61 63 67 52 38 51 51
1950.0 31 31 54 65 63 61 74 81 68 75
1990.0 64 48 65 88 89 82 73 66 57 39
2030.0 24 14 7 19 53 68 97 106 74 88
2070.0 134 123 93 101 119 105 90 89 102 131
2110.0 134 129 115 75 55 80 78 64 77 80
2150.0 68 72 82 68 64 67 41 50 62 39
2190.0 39 62 65 58 94 90 67 84 88 100
2230.0 127 149 145 144 168 166 178 173 128 89
2270.0 79 71 51 40 51 57 48 62 57 44
2310.0 58 58 41 48 40 20 50 72 77 100
2350.0 72 61 74 84 102 77 63 51 33 20
2390.0 23 36 31 34 48 56 61 62 44 67
2430.0 74 41 17 9 13 34 67 54 40 21
2470.0 17 40 38 3 31 51 36 55 58 46
2510.0 29 48 51 32 37 52 56 53 36 44
2550.0 58 62 31 1 22 33 48 69 31 4
2590.0 50 60 30 38 54 66 65 88 104 67
2630.0 33 26 57 73 49 39 48 60 61 57
2670.0 38 52 105 86 94 132 145 113 57 79
2710.0 135 140 124 122 138 140 131 170 192 150
2750.0 155 221 235 212 174 146 122 67 38 10
2790.0 66 101 45 49 74 111 116 105 91 79
2830.0 55 35 29 15 31 61 39 23 46 53
2870.0 17 19 40 28 40 28 37 49 37 33
2910.0 39 40 41 33 15 51 120 146 113 82
2950.0 87 93 99 97 74 75 67 41 30 22
2990.0 24 50 27 47 79 47 24 13 46 52
3030.0 56 50 23 65 89 75 97 118 125 174
3070.0 246 318 393 460 456 459 493 493 533 540
3110.0 543 560 509 388 325 335 309 234 222 245
3150.0 212 163 108 63 74 115 75 55 120 131
3190.0 89 79 111 95 74 102 102 80 46 54
3230.0 78 73 63 60 73 107 96 65 43 81
3270.0 129 97 68 67 65 58 88 127 142 97
3310.0 72 52 72 81 116 144 70 12 32 104
3350.0 99 84 84 89 72 87 161 203 128 38
3390.0 65 146 179 135 114 138 133 200 251 157
3430.0 78 125 188 222 272 232 185 202 222 211
3470.0 137 157 219 172 138 155 150 141 148 175
3510.0 169 127 134 144 95 89 161 161 183 166
3550.0 119 108 100 179 170 133 136 99 120 151
3590.0 123 102 97 172 209 137 141 187 177 179
3630.0 169 155 138 139 161 198 189 134 129 149
3670.0 142 141 171 216 203 197 217 148 132 177
3710.0 198 199 247 231 172 229 190 101 125 181
3750.0 152 178 179 98 102 74 77 106 88 101
3790.0 171 156 94 134 168 150 164 214 236 212
3830.0 172 172 198 188 161
##END=
