##TITLE=3-Chloropropionamide
##JCAMP-DX=4.24
##DATA TYPE=INFRARED SPECTRUM
##ORIGIN=NIST Mass Spectrometry Data Center
##OWNER=NIST Standard Reference Data Program
Collection (C) 2009 copyright by the U.S. Secretary of Commerce
on behalf of the United States of America. All rights reserved.
##CAS REGISTRY NO=5875-24-1
##MOLFORM=C 3 H 6 Cl N O
##$NIST SOURCE=MSDC-IR
##SPECTROMETER/DATA SYSTEM=HP-GC/MS/IRD
##STATE=gas
##XUNITS=1/CM
##YUNITS=ABSORBANCE
##XFACTOR=1.0
##YFACTOR=0.000001200
##DELTAX=4.0
##FIRSTX=550.0
##LASTX=3846.0
##FIRSTY=0.000625
##MAXX=3846
##MINX=550
##MAXY=0.012
##MINY=0
##NPOINTS=825
##XYDATA=(X++(Y..Y))
550.0 521 741 594 597 593 627 634 655 613 632
590.0 625 634 604 630 604 530 558 500 472 529
630.0 600 648 634 639 698 699 642 692 775 800
670.0 807 791 742 649 547 491 499 448 377 380
710.0 398 427 469 529 545 597 686 755 880 990
750.0 1049 1106 1100 1009 944 899 821 733 659 603
790.0 591 614 559 490 467 479 453 396 324 265
830.0 363 377 350 355 337 388 433 434 435 450
870.0 469 467 467 460 439 430 410 377 397 445
910.0 451 453 472 484 459 453 470 476 493 434
950.0 364 354 366 360 360 377 343 305 288 286
990.0 290 242 216 216 185 160 168 188 201 233
1030.0 234 221 227 164 124 143 134 96 10 24
1070.0 76 69 112 168 188 174 196 248 209 159
1110.0 127 65 49 52 46 70 76 97 108 93
1150.0 105 119 133 133 176 222 194 181 242 267
1190.0 260 302 345 404 480 547 597 645 702 762
1230.0 812 814 779 784 809 844 888 931 984 1079
1270.0 1238 1400 1553 1704 1812 1855 1876 1848 1768 1672
1310.0 1555 1438 1348 1293 1286 1322 1371 1452 1612 1800
1350.0 2002 2254 2512 2768 3013 3166 3196 3098 2852 2507
1390.0 2088 1673 1343 1127 992 897 843 818 788 760
1430.0 731 706 674 638 596 504 436 363 277 213
1470.0 160 135 111 84 68 53 53 48 49 52
1510.0 42 54 61 66 87 101 127 168 213 259
1550.0 319 411 512 666 905 1215 1621 2132 2605 2926
1590.0 3112 3188 3078 2732 2285 1834 1468 1183 953 799
1630.0 703 637 574 522 496 489 504 526 572 626
1670.0 720 861 1004 1205 1470 1797 2223 2794 3518 4357
1710.0 5314 6333 7370 8344 9153 9696 9960 10000 9723 8972
1750.0 7782 6469 5225 4100 3147 2378 1762 1312 979 730
1790.0 565 451 357 288 232 187 154 138 130 118
1830.0 112 113 113 109 86 68 75 78 55 42
1870.0 53 46 33 47 53 44 40 45 42 30
1910.0 32 27 19 21 18 26 35 22 30 47
1950.0 40 28 20 14 40 50 47 33 7 18
1990.0 29 27 18 8 9 8 17 18 16 21
2030.0 19 24 38 40 19 7 11 18 8 5
2070.0 13 14 19 15 8 20 27 12 0 10
2110.0 29 32 26 30 41 47 42 30 18 10
2150.0 6 13 35 52 44 29 22 26 34 41
2190.0 36 32 34 33 44 48 53 59 29 17
2230.0 44 32 25 44 42 38 33 39 47 41
2270.0 24 12 12 12 15 27 26 19 23 28
2310.0 40 40 43 48 51 41 30 22 26 39
2350.0 27 23 31 38 38 31 28 29 31 42
2390.0 47 34 19 11 29 47 35 20 40 32
2430.0 12 36 34 31 40 40 49 44 29 37
2470.0 46 54 46 29 30 26 26 32 33 46
2510.0 41 29 23 10 7 21 33 25 23 37
2550.0 30 10 20 37 41 42 32 27 23 34
2590.0 30 27 48 50 38 19 32 49 43 52
2630.0 50 39 45 31 7 17 29 36 58 72
2670.0 56 56 55 19 18 33 63 63 35 24
2710.0 20 15 16 17 32 49 48 42 34 34
2750.0 46 54 41 31 58 64 81 70 35 42
2790.0 58 73 106 98 74 86 92 91 111 96
2830.0 69 75 86 99 107 106 85 78 111 134
2870.0 149 153 149 161 148 156 194 186 182 205
2910.0 233 259 262 288 336 354 375 413 451 472
2950.0 485 502 555 632 654 651 665 689 670 621
2990.0 586 536 491 435 372 355 354 286 219 231
3030.0 216 176 154 133 121 123 153 147 87 78
3070.0 105 83 64 86 80 68 85 85 93 120
3110.0 67 26 66 83 89 94 97 92 89 86
3150.0 85 115 145 103 52 74 92 96 126 124
3190.0 105 117 114 114 120 91 92 97 52 45
3230.0 76 90 79 77 84 108 122 86 72 61
3270.0 33 58 66 68 65 102 144 119 97 104
3310.0 128 130 129 139 144 137 119 114 144 133
3350.0 142 141 110 119 159 173 167 228 279 276
3390.0 319 411 483 564 654 730 843 952 1037 1088
3430.0 1115 1156 1147 1065 979 854 700 594 479 396
3470.0 351 318 325 291 291 348 382 419 442 480
3510.0 543 598 665 745 820 890 950 1001 1027 1048
3550.0 1032 1029 972 880 770 621 509 367 259 229
3590.0 184 144 92 42 78 136 115 75 57 37
3630.0 81 133 139 81 72 50 27 55 42 50
3670.0 75 75 52 64 123 97 18 19 51 50
3710.0 67 67 46 63 70 58 50 59 65 56
3750.0 31 35 50 58 66 56 73 81 110 164
3790.0 147 66 25 58 90 66 40 74 91 83
3830.0 79 66 59 45 33
##END=
