##TITLE=3-Penten-2-ol
##JCAMP-DX=4.24
##DATA TYPE=INFRARED SPECTRUM
##ORIGIN=NIST Mass Spectrometry Data Center
##OWNER=NIST Standard Reference Data Program
Collection (C) 2009 copyright by the U.S. Secretary of Commerce
on behalf of the United States of America. All rights reserved.
##CAS REGISTRY NO=1569-50-2
##MOLFORM=C 5 H 10 O
##$NIST SOURCE=MSDC-IR
##SPECTROMETER/DATA SYSTEM=HP-GC/MS/IRD
##STATE=gas
##XUNITS=1/CM
##YUNITS=ABSORBANCE
##XFACTOR=1.0
##YFACTOR=0.000001500
##DELTAX=4.0
##FIRSTX=550.0
##LASTX=3846.0
##FIRSTY=0.000545
##MAXX=3846
##MINX=550
##MAXY=0.015
##MINY=0
##NPOINTS=825
##XYDATA=(X++(Y..Y))
550.0 363 259 223 191 158 170 208 157 100 99
590.0 137 182 207 217 155 167 216 245 259 220
630.0 194 210 213 164 65 59 91 24 7 58
670.0 67 59 75 86 88 74 75 73 104 170
710.0 155 126 126 124 130 125 83 67 75 74
750.0 52 24 68 143 153 130 147 180 196 209
790.0 212 218 258 288 311 375 451 511 558 603
830.0 651 730 802 832 893 929 995 1073 1115 1166
870.0 1202 1233 1287 1392 1580 1848 2232 2714 3116 3401
910.0 3561 3660 3799 3761 3559 3413 3397 3551 3875 4330
950.0 4789 5168 5447 5676 5895 5863 5523 5058 4551 4045
990.0 3621 3329 3161 3044 3024 3170 3405 3696 4042 4441
1030.0 4836 5224 5587 5881 6071 6104 5983 5722 5385 4985
1070.0 4491 4004 3624 3414 3301 3230 3251 3313 3359 3418
1110.0 3460 3447 3401 3355 3297 3224 3125 3030 2915 2766
1150.0 2588 2406 2220 2012 1843 1674 1512 1423 1375 1356
1190.0 1344 1371 1432 1501 1604 1730 1893 2073 2245 2464
1230.0 2706 2965 3179 3291 3328 3336 3274 3104 2841 2553
1270.0 2324 2135 1994 1926 1917 1916 1911 1915 1920 1939
1310.0 1992 2071 2115 2144 2219 2334 2511 2749 2889 3008
1350.0 3213 3419 3635 3866 4006 4121 4206 4160 4038 3861
1390.0 3559 3212 2836 2439 2150 1911 1793 1826 1786 1742
1430.0 1815 1981 2076 2089 2214 2271 2320 2254 1995 1807
1470.0 1686 1553 1290 1068 1003 933 810 726 681 812
1510.0 811 668 671 665 568 505 494 540 576 475
1550.0 391 432 513 387 284 287 297 305 282 286
1590.0 304 325 324 337 361 371 396 412 400 394
1630.0 401 492 530 560 670 815 900 841 868 923
1670.0 956 913 834 826 723 523 460 485 422 315
1710.0 276 348 385 289 270 376 453 399 381 426
1750.0 465 398 346 326 321 333 280 237 259 263
1790.0 301 318 307 319 291 286 275 257 240 247
1830.0 240 199 170 214 219 146 110 110 110 133
1870.0 120 74 83 67 44 48 47 49 38 45
1910.0 45 47 75 67 37 20 30 46 56 40
1950.0 22 29 36 42 68 69 45 46 68 71
1990.0 91 98 75 79 91 73 65 64 55 38
2030.0 23 28 28 18 15 28 27 23 14 3
2070.0 4 4 10 14 10 14 3 0 2 9
2110.0 15 14 10 15 22 18 17 16 4 15
2150.0 31 29 30 28 18 13 21 22 9 14
2190.0 22 18 15 9 7 6 0 6 11 19
2230.0 19 14 10 13 12 16 23 17 19 24
2270.0 25 26 30 30 26 20 28 46 47 40
2310.0 30 18 21 18 24 44 45 36 43 44
2350.0 49 62 68 68 62 57 63 72 68 67
2390.0 67 61 57 71 83 80 92 106 89 79
2430.0 72 69 84 83 74 79 83 84 87 88
2470.0 89 85 81 86 83 80 87 83 63 52
2510.0 62 62 49 51 62 54 47 54 68 74
2550.0 73 67 75 82 97 102 93 106 110 110
2590.0 111 115 118 125 131 130 123 123 135 137
2630.0 142 152 144 140 140 134 131 122 123 117
2670.0 119 127 132 134 126 131 158 170 178 191
2710.0 200 221 242 246 284 343 360 371 392 407
2750.0 408 390 360 346 322 306 331 343 336 348
2790.0 381 409 454 501 535 570 627 710 785 853
2830.0 963 1109 1274 1510 1831 2238 2744 3370 4024 4578
2870.0 5028 5400 5677 5778 5726 5595 5447 5321 5231 5242
2910.0 5397 5745 6247 6681 6888 6986 7041 7046 6870 6545
2950.0 6297 6323 6663 7216 7970 8837 9626 10000 9792 9297
2990.0 8680 7893 6880 5862 5075 4519 4131 3879 3679 3470
3030.0 3235 2988 2763 2521 2297 2116 1911 1697 1518 1396
3070.0 1300 1204 1162 1114 1045 979 898 855 827 750
3110.0 678 626 560 497 455 413 380 360 336 297
3150.0 287 284 242 204 201 210 205 166 138 154
3190.0 155 144 155 156 151 150 137 127 121 114
3230.0 94 72 61 66 52 27 24 23 25 23
3270.0 18 17 15 15 20 11 0 1 12 31
3310.0 60 68 47 35 31 42 70 78 57 67
3350.0 81 78 88 100 73 45 81 108 95 88
3390.0 92 82 76 92 101 111 119 128 125 98
3430.0 60 56 97 121 121 101 95 124 128 103
3470.0 79 88 132 126 92 96 97 113 149 150
3510.0 134 79 79 133 141 102 85 85 128 174
3550.0 127 104 104 155 248 201 103 129 162 251
3590.0 279 210 198 230 333 435 491 610 707 876
3630.0 1130 1266 1434 1576 1657 1678 1614 1520 1311 1120
3670.0 957 758 569 416 363 312 204 150 163 208
3710.0 246 195 153 211 214 201 322 284 238 279
3750.0 266 198 122 124 137 122 77 77 96 95
3790.0 78 122 191 208 183 116 121 190 196 145
3830.0 141 190 218 204 155
##END=
