##TITLE=Crotonaldehyde
##JCAMP-DX=4.24
##DATA TYPE=INFRARED SPECTRUM
##ORIGIN=NIST Mass Spectrometry Data Center
##OWNER=NIST Standard Reference Data Program
Collection (C) 2009 copyright by the U.S. Secretary of Commerce
on behalf of the United States of America. All rights reserved.
##CAS REGISTRY NO=4170-30-3
##MOLFORM=C 4 H 6 O
##$NIST SOURCE=MSDC-IR
##SPECTROMETER/DATA SYSTEM=HP-GC/MS/IRD
##STATE=gas
##XUNITS=1/CM
##YUNITS=ABSORBANCE
##XFACTOR=1.0
##YFACTOR=0.000012800
##DELTAX=4.0
##FIRSTX=550.0
##LASTX=3846.0
##FIRSTY=0.001805
##MAXX=3846
##MINX=550
##MAXY=0.128
##MINY=0
##NPOINTS=825
##XYDATA=(X++(Y..Y))
550.0 141 242 161 129 108 82 58 39 20 12
590.0 17 25 21 9 13 9 7 8 15 17
630.0 3 1 8 9 6 6 4 4 0 3
670.0 8 13 17 15 15 23 23 23 36 62
710.0 107 164 225 252 239 235 242 261 248 183
750.0 113 71 53 38 32 27 20 15 17 18
790.0 14 11 10 13 13 15 17 22 30 35
830.0 41 44 52 58 68 82 91 107 123 132
870.0 149 172 186 192 204 226 250 273 298 343
910.0 400 475 558 642 735 836 936 1010 1055 1089
950.0 1107 1110 1115 1144 1196 1183 1043 918 882 849
990.0 799 742 688 628 560 503 451 396 347 300
1030.0 262 245 250 277 330 406 497 571 605 619
1070.0 649 690 687 608 514 467 456 473 502 543
1110.0 596 673 800 979 1195 1409 1559 1637 1670 1681
1150.0 1625 1451 1176 875 614 427 310 238 191 159
1190.0 137 119 106 99 92 85 83 80 78 78
1230.0 77 81 93 102 108 110 112 118 132 146
1270.0 167 196 223 236 240 247 256 261 243 222
1310.0 211 198 180 161 147 138 127 117 111 108
1350.0 108 108 117 127 139 159 181 203 224 253
1390.0 279 292 287 278 275 273 270 272 274 282
1430.0 298 322 359 395 402 371 359 373 367 340
1470.0 306 275 246 222 201 186 172 158 148 141
1510.0 132 124 121 118 115 114 115 113 108 105
1550.0 104 105 107 108 111 118 124 132 143 160
1590.0 184 215 250 303 383 490 633 817 1015 1193
1630.0 1318 1389 1424 1434 1406 1297 1117 926 769 697
1670.0 712 790 937 1194 1622 2315 3535 5449 7703 9184
1710.0 9109 8356 8687 10000 9280 6096 3147 1602 1034 805
1750.0 669 555 456 376 313 266 223 190 166 144
1790.0 126 114 105 98 93 85 81 78 75 74
1830.0 72 69 66 65 62 59 57 51 44 40
1870.0 34 29 26 26 25 24 24 23 22 25
1910.0 29 36 43 42 39 39 41 38 29 22
1950.0 17 12 10 13 15 15 19 23 26 28
1990.0 31 33 34 35 34 30 25 23 18 14
2030.0 12 8 7 8 8 8 7 6 8 10
2070.0 10 9 10 12 13 12 11 14 19 21
2110.0 22 22 24 28 28 30 29 27 26 24
2150.0 21 24 28 32 35 35 34 36 38 35
2190.0 27 21 18 16 14 16 15 13 13 10
2230.0 7 5 4 2 2 3 5 6 6 5
2270.0 5 6 7 6 5 5 6 5 4 4
2310.0 3 4 5 3 2 4 5 2 3 4
2350.0 4 6 7 10 11 12 16 18 17 15
2390.0 16 17 14 12 10 7 6 5 4 4
2430.0 4 1 0 1 3 4 2 1 2 4
2470.0 6 7 8 7 5 7 10 10 11 12
2510.0 12 12 13 14 13 8 6 8 9 10
2550.0 9 10 9 11 13 13 17 20 22 24
2590.0 26 29 34 41 44 45 53 62 68 75
2630.0 79 85 96 108 128 146 163 189 221 260
2670.0 302 353 410 469 523 588 664 740 824 911
2710.0 991 1042 1056 1077 1153 1237 1243 1189 1137 1107
2750.0 1073 998 905 827 776 756 750 764 794 836
2790.0 886 924 917 876 886 977 1053 1065 1019 945
2830.0 882 833 791 737 663 591 538 507 482 457
2870.0 433 411 396 376 351 321 295 287 291 305
2910.0 347 414 495 562 587 589 612 642 627 574
2950.0 517 490 483 468 471 489 501 509 517 531
2990.0 544 549 539 524 520 528 532 521 508 494
3030.0 482 465 440 414 393 388 382 358 326 297
3070.0 272 246 219 202 188 166 142 125 113 102
3110.0 92 85 78 69 62 59 50 43 40 34
3150.0 29 27 24 23 19 11 14 15 11 7
3190.0 7 7 8 9 4 5 6 8 7 7
3230.0 8 9 10 8 8 10 7 4 3 5
3270.0 7 8 8 7 5 8 10 4 6 8
3310.0 10 10 8 12 13 12 13 17 21 26
3350.0 22 22 25 26 31 36 38 43 55 71
3390.0 90 115 147 172 185 186 185 189 183 147
3430.0 99 64 45 38 35 42 41 30 21 17
3470.0 15 17 13 11 11 9 9 9 8 7
3510.0 7 10 12 7 6 8 6 6 5 5
3550.0 2 7 8 4 6 5 6 6 4 4
3590.0 5 1 1 7 12 11 7 8 8 10
3630.0 10 7 8 6 5 6 7 11 10 8
3670.0 7 7 6 5 7 7 8 8 5 9
3710.0 11 7 7 12 15 14 14 14 10 6
3750.0 4 9 10 8 10 10 8 6 6 12
3790.0 13 6 4 7 8 6 9 14 15 12
3830.0 10 12 11 7 9
##END=
