##TITLE=Cyclopentanol
##JCAMP-DX=4.24
##DATA TYPE=INFRARED SPECTRUM
##ORIGIN=NIST Mass Spectrometry Data Center
##OWNER=NIST Standard Reference Data Program
Collection (C) 2009 copyright by the U.S. Secretary of Commerce
on behalf of the United States of America. All rights reserved.
##CAS REGISTRY NO=96-41-3
##MOLFORM=C 5 H 10 O
##$NIST SOURCE=MSDC-IR
##SPECTROMETER/DATA SYSTEM=HP-GC/MS/IRD
##STATE=gas
##XUNITS=1/CM
##YUNITS=ABSORBANCE
##XFACTOR=1.0
##YFACTOR=0.000002300
##DELTAX=4.0
##FIRSTX=550.0
##LASTX=3846.0
##FIRSTY=0.000207
##MAXX=3846
##MINX=550
##MAXY=0.023
##MINY=0
##NPOINTS=825
##XYDATA=(X++(Y..Y))
550.0 90 77 52 62 51 38 44 47 48 49
590.0 49 47 42 42 49 44 40 29 16 1
630.0 10 28 27 27 23 33 29 25 26 19
670.0 20 36 41 22 22 32 29 30 27 39
710.0 42 26 29 37 34 43 57 55 66 71
750.0 55 54 69 79 79 89 92 94 114 135
790.0 148 157 177 199 231 279 297 325 365 385
830.0 410 403 376 350 325 304 275 251 245 246
870.0 245 248 252 276 312 345 375 399 430 474
910.0 516 532 545 560 569 582 587 586 581 582
950.0 595 618 654 731 823 954 1142 1352 1589 1824
990.0 2004 2131 2236 2302 2281 2220 2156 2070 1988 1920
1030.0 1866 1826 1822 1849 1852 1837 1811 1777 1759 1745
1070.0 1717 1680 1633 1570 1489 1377 1256 1130 1012 929
1110.0 871 849 852 858 851 840 864 883 896 924
1150.0 957 1008 1075 1126 1170 1211 1233 1254 1270 1265
1190.0 1252 1237 1216 1177 1146 1133 1127 1110 1109 1111
1230.0 1110 1121 1135 1149 1142 1133 1132 1119 1095 1064
1270.0 1039 1017 996 966 939 919 889 856 831 817
1310.0 807 814 833 859 880 896 921 927 917 913
1350.0 897 866 835 808 787 783 772 752 739 719
1390.0 690 651 608 576 543 506 479 477 484 500
1430.0 532 570 594 610 632 645 627 599 581 564
1470.0 528 484 449 412 364 323 283 238 202 172
1510.0 142 122 108 90 78 70 55 50 51 47
1550.0 41 43 37 26 25 24 29 26 25 32
1590.0 33 27 26 28 19 19 24 19 15 17
1630.0 17 18 22 23 22 15 11 16 13 22
1670.0 29 24 20 17 19 19 8 4 13 27
1710.0 30 28 26 22 22 26 28 25 26 37
1750.0 48 51 51 56 54 44 41 45 45 34
1790.0 27 28 28 32 32 25 23 31 32 31
1830.0 29 28 30 29 25 23 15 7 11 20
1870.0 25 25 21 20 20 16 17 11 6 10
1910.0 6 7 18 20 16 11 6 0 6 17
1950.0 19 21 13 11 15 17 14 14 17 16
1990.0 20 21 20 24 25 27 17 6 8 6
2030.0 7 10 10 13 14 15 16 12 13 15
2070.0 15 20 20 15 15 17 15 10 20 26
2110.0 24 27 28 27 23 23 30 33 36 41
2150.0 42 41 42 42 38 36 34 32 34 40
2190.0 37 34 34 30 30 31 32 33 33 34
2230.0 27 24 29 29 25 21 19 26 30 27
2270.0 27 29 26 22 27 34 32 30 36 40
2310.0 39 35 34 34 33 31 33 38 33 33
2350.0 33 28 32 34 32 33 32 32 29 21
2390.0 20 24 23 17 12 14 22 19 18 25
2430.0 23 16 9 7 13 18 15 12 15 16
2470.0 17 18 18 13 16 23 18 17 10 3
2510.0 7 11 14 20 18 12 13 20 19 12
2550.0 14 21 19 21 26 35 40 36 35 36
2590.0 39 48 57 59 55 54 60 61 59 54
2630.0 56 66 60 56 53 58 60 56 62 69
2670.0 71 75 73 65 64 69 75 78 82 78
2710.0 79 88 98 99 95 95 101 112 113 110
2750.0 116 117 117 115 123 138 136 139 151 165
2790.0 173 184 202 214 243 277 304 347 398 461
2830.0 535 615 728 868 1047 1268 1504 1775 2082 2374
2870.0 2651 2916 3174 3414 3613 3773 3945 4130 4318 4463
2910.0 4588 4782 5040 5331 5678 6072 6538 7096 7706 8261
2950.0 8662 8914 9123 9504 10000 9626 8231 6914 5974 5128
2990.0 4260 3396 2611 1989 1531 1194 959 788 655 545
3030.0 454 383 331 284 238 210 193 165 143 135
3070.0 125 120 116 109 89 83 89 80 70 68
3110.0 72 68 52 43 45 47 52 53 43 43
3150.0 51 39 27 28 35 34 32 40 40 35
3190.0 28 27 32 32 26 15 15 28 44 21
3230.0 8 19 20 11 6 6 3 5 6 7
3270.0 12 19 14 17 23 12 6 14 12 11
3310.0 34 44 44 38 34 20 22 36 32 29
3350.0 36 42 39 41 34 33 46 46 40 37
3390.0 44 50 43 43 65 72 55 59 65 59
3430.0 64 63 55 57 60 59 71 80 71 66
3470.0 67 63 65 66 55 48 60 72 65 50
3510.0 48 56 68 74 60 53 54 50 64 70
3550.0 56 61 70 81 73 48 50 54 54 64
3590.0 68 74 77 74 87 110 136 176 226 274
3630.0 353 460 593 713 792 837 899 899 820 773
3670.0 707 582 442 313 231 187 140 108 99 95
3710.0 100 92 85 94 76 64 62 66 70 64
3750.0 76 74 57 67 72 76 80 64 80 93
3790.0 76 73 88 91 85 91 100 101 103 118
3830.0 117 99 95 105 106
##END=
