##TITLE=2-Butanethiol
##JCAMP-DX=4.24
##DATA TYPE=INFRARED SPECTRUM
##ORIGIN=NIST Mass Spectrometry Data Center
##OWNER=NIST Standard Reference Data Program
Collection (C) 2009 copyright by the U.S. Secretary of Commerce
on behalf of the United States of America. All rights reserved.
##CAS REGISTRY NO=513-53-1
##MOLFORM=C 4 H 10 S
##$NIST SOURCE=MSDC-IR
##SPECTROMETER/DATA SYSTEM=HP-GC/MS/IRD
##STATE=gas
##XUNITS=1/CM
##YUNITS=ABSORBANCE
##XFACTOR=1.0
##YFACTOR=0.000006300
##DELTAX=4.0
##FIRSTX=550.0
##LASTX=3846.0
##FIRSTY=0.000044
##MAXX=3846
##MINX=550
##MAXY=0.063
##MINY=0
##NPOINTS=825
##XYDATA=(X++(Y..Y))
550.0 7 14 26 14 23 40 36 27 31 36
590.0 43 65 92 103 116 131 138 152 146 139
630.0 143 136 118 105 87 80 96 94 81 88
670.0 92 100 104 98 92 80 69 65 58 42
710.0 21 0 15 17 9 14 11 12 15 26
750.0 24 34 57 72 95 125 163 200 228 261
790.0 286 294 294 289 286 288 296 290 295 319
830.0 327 327 327 304 284 278 257 226 203 197
870.0 203 195 178 160 138 129 118 97 88 85
910.0 81 78 78 81 89 96 112 137 169 202
950.0 223 241 277 307 318 320 317 330 346 359
990.0 378 404 420 432 447 436 411 376 335 290
1030.0 249 216 196 195 206 224 249 291 331 359
1070.0 392 403 387 376 363 342 322 301 291 297
1110.0 293 297 300 298 313 340 380 406 415 436
1150.0 441 432 425 395 341 277 207 153 139 142
1190.0 158 189 245 341 451 581 730 876 1000 1092
1230.0 1153 1166 1137 1057 933 793 677 600 558 547
1270.0 571 609 663 741 826 882 883 837 769 705
1310.0 647 566 472 393 335 301 282 272 273 292
1350.0 330 388 475 597 753 910 1040 1146 1236 1294
1390.0 1245 1116 947 742 559 434 379 384 441 551
1430.0 705 886 1094 1302 1514 1745 1868 1839 1778 1685
1470.0 1541 1353 1149 945 752 592 455 348 273 215
1510.0 172 149 132 118 106 99 95 93 92 91
1550.0 93 95 96 99 103 101 98 94 90 90
1590.0 85 81 80 77 73 72 71 67 64 65
1630.0 67 68 64 65 67 67 70 70 68 64
1670.0 64 67 69 66 58 54 55 51 51 50
1710.0 48 43 34 31 30 28 24 23 22 23
1750.0 24 19 18 21 25 20 14 19 16 11
1790.0 18 19 16 16 18 16 15 16 17 17
1830.0 18 17 17 16 15 16 15 12 11 11
1870.0 12 13 14 15 17 15 16 16 12 12
1910.0 14 14 15 13 11 9 10 11 12 13
1950.0 11 10 8 12 12 10 11 9 13 12
1990.0 7 8 10 9 7 5 8 9 11 4
2030.0 1 6 7 4 2 5 9 9 6 10
2070.0 12 8 8 8 8 9 8 7 11 10
2110.0 3 1 0 0 1 2 5 7 5 5
2150.0 3 6 10 11 13 9 4 5 4 1
2190.0 3 2 2 6 4 0 4 5 2 8
2230.0 15 12 8 4 5 5 7 9 10 9
2270.0 8 11 14 16 16 19 21 17 14 11
2310.0 14 19 18 21 19 18 21 23 24 28
2350.0 33 32 33 32 28 29 28 29 32 34
2390.0 32 31 32 32 31 31 28 22 19 18
2430.0 20 24 26 28 32 28 24 24 22 23
2470.0 29 33 30 27 31 31 32 30 23 23
2510.0 27 33 37 34 38 41 43 46 51 64
2550.0 75 82 95 118 141 173 221 273 294 297
2590.0 305 300 287 265 231 196 169 139 112 98
2630.0 89 83 79 78 77 76 75 80 86 89
2670.0 93 89 93 101 99 101 101 101 103 105
2710.0 114 127 141 152 167 187 201 210 217 220
2750.0 223 222 217 209 201 197 201 208 209 223
2790.0 234 245 266 277 301 330 358 391 430 483
2830.0 543 624 747 906 1090 1294 1523 1790 2110 2436
2870.0 2737 2998 3168 3286 3433 3545 3609 3708 3853 4093
2910.0 4442 4895 5418 5973 6551 6986 7105 7097 7122 7140
2950.0 7217 7475 7977 8656 9461 10000 9660 9038 8347 7255
2990.0 5960 4617 3339 2300 1584 1124 843 672 567 488
3030.0 437 413 389 368 355 350 341 335 338 334
3070.0 328 321 322 315 298 287 265 247 231 217
3110.0 206 194 188 192 182 169 171 179 173 165
3150.0 163 159 165 174 172 170 168 167 167 170
3190.0 169 154 140 141 139 127 124 113 105 94
3230.0 78 68 54 50 55 54 49 41 40 44
3270.0 47 52 56 50 54 60 60 62 63 66
3310.0 58 46 34 25 34 40 36 33 28 29
3350.0 30 28 33 32 31 33 29 27 26 30
3390.0 32 28 26 17 12 14 14 11 26 34
3430.0 29 30 26 10 8 25 25 14 17 17
3470.0 13 16 9 4 11 16 13 12 21 21
3510.0 20 13 1 0 12 18 11 6 4 5
3550.0 2 3 10 9 20 25 10 7 9 12
3590.0 20 20 12 11 21 15 2 0 13 15
3630.0 7 18 27 26 16 8 7 8 22 29
3670.0 27 20 17 23 25 34 27 23 19 21
3710.0 35 26 18 20 17 22 27 30 25 17
3750.0 19 14 15 18 16 9 12 19 26 24
3790.0 13 19 23 24 27 25 15 10 17 24
3830.0 27 25 35 28 32
##END=
