##TITLE=1,3-Dichloro-2-butene
##JCAMP-DX=4.24
##DATA TYPE=INFRARED SPECTRUM
##ORIGIN=NIST Mass Spectrometry Data Center
##OWNER=NIST Standard Reference Data Program
Collection (C) 2009 copyright by the U.S. Secretary of Commerce
on behalf of the United States of America. All rights reserved.
##CAS REGISTRY NO=926-57-8
##MOLFORM=C 4 H 6 Cl 2
##$NIST SOURCE=MSDC-IR
##SPECTROMETER/DATA SYSTEM=HP-GC/MS/IRD
##STATE=gas
##XUNITS=1/CM
##YUNITS=ABSORBANCE
##XFACTOR=1.0
##YFACTOR=0.000000600
##DELTAX=4.0
##FIRSTX=550.0
##LASTX=3846.0
##FIRSTY=0.000373
##MAXX=3846
##MINX=550
##MAXY=0.006
##MINY=0
##NPOINTS=825
##XYDATA=(X++(Y..Y))
550.0 622 337 181 212 329 411 289 242 361 471
590.0 520 725 1175 1636 2264 3280 4736 6168 6934 6979
630.0 6515 5929 4912 3318 2230 1746 1382 1239 1223 1383
670.0 1561 1727 2014 2281 2637 3024 3536 4200 4925 5511
710.0 5840 5880 5352 4499 3658 3088 2791 2629 2564 2590
750.0 2581 2406 2111 1873 1706 1447 1326 1404 1491 1671
790.0 1962 2350 2705 3199 3553 3777 3908 3892 3806 3493
830.0 3125 2867 2588 2304 2120 1967 1833 1741 1651 1595
870.0 1659 1705 1661 1536 1496 1615 1577 1468 1405 1296
910.0 1093 838 684 630 533 432 436 398 318 240
950.0 176 177 147 87 52 40 37 78 163 307
990.0 459 482 438 395 315 226 99 38 115 155
1030.0 172 208 271 359 421 505 620 744 938 1202
1070.0 1619 2221 2871 3521 4293 5141 5570 5422 5141 4815
1110.0 4179 3395 2727 2223 1782 1540 1398 1232 1004 831
1150.0 770 756 852 1063 1236 1455 1761 2037 2304 2491
1190.0 2545 2532 2516 2504 2414 2387 2420 2388 2358 2432
1230.0 2835 3697 5142 7108 8782 9679 10000 9554 7887 5379
1270.0 3375 2339 1892 1821 1876 1999 2236 2550 2768 2784
1310.0 2728 2611 2308 1838 1427 1131 847 640 523 428
1350.0 407 430 429 425 536 746 980 1233 1308 1353
1390.0 1536 1483 1235 1117 1062 1026 1046 1226 1504 1772
1430.0 2054 2417 2831 2997 2984 2878 2658 2328 1863 1436
1470.0 1119 845 637 511 407 307 259 235 215 218
1510.0 215 219 240 240 177 142 154 177 214 202
1550.0 200 228 254 270 333 382 367 378 393 392
1590.0 432 511 545 575 584 621 751 918 1112 1322
1630.0 1609 2018 2593 3421 4461 5496 6267 6529 6210 5398
1670.0 4187 2803 1626 941 645 446 335 318 274 244
1710.0 231 262 265 227 194 161 149 157 138 100
1750.0 109 127 124 106 89 102 87 80 88 74
1790.0 76 72 50 13 0 24 50 69 82 86
1830.0 59 27 25 55 67 29 10 40 62 74
1870.0 87 82 102 84 54 81 78 64 69 50
1910.0 64 71 76 90 69 41 28 43 65 77
1950.0 93 115 110 100 84 79 95 89 79 65
1990.0 85 118 125 127 111 114 102 110 148 122
2030.0 70 32 58 102 78 83 91 62 78 78
2070.0 94 99 118 147 108 93 96 99 111 111
2110.0 94 99 115 91 69 79 130 138 80 105
2150.0 152 130 119 158 202 204 154 120 122 107
2190.0 79 87 102 107 105 78 76 112 75 78
2230.0 95 74 87 97 97 91 98 92 86 107
2270.0 124 109 110 152 180 171 143 146 159 160
2310.0 139 149 179 190 175 150 142 169 186 154
2350.0 136 152 166 161 139 110 127 161 180 183
2390.0 193 177 160 161 152 129 96 109 119 116
2430.0 146 160 144 149 161 151 144 142 113 175
2470.0 204 191 216 161 140 135 103 83 93 92
2510.0 106 135 80 63 74 52 58 88 109 105
2550.0 122 94 81 58 48 79 132 88 32 52
2590.0 63 85 76 46 58 53 65 100 134 109
2630.0 72 76 91 106 126 144 76 53 93 79
2670.0 127 144 106 123 147 145 154 185 195 202
2710.0 201 186 155 124 141 198 231 234 249 240
2750.0 217 249 238 153 156 168 207 188 111 150
2790.0 192 162 181 244 216 185 215 255 298 336
2830.0 357 381 441 545 571 618 766 840 884 998
2870.0 1074 1138 1149 1124 1088 1055 1082 1031 1012 1006
2910.0 1044 1155 1367 1888 2516 2926 3095 3262 3359 3110
2950.0 2820 2824 3060 3434 3840 4232 4326 4299 4409 4285
2990.0 3894 3642 3196 2498 1916 1565 1322 1103 967 950
3030.0 1031 1138 1259 1273 1232 1258 1116 903 758 547
3070.0 417 407 383 330 359 372 363 391 343 336
3110.0 260 219 241 246 273 241 316 344 267 318
3150.0 302 226 260 272 299 302 231 214 232 230
3190.0 213 194 217 219 212 253 274 245 195 133
3230.0 131 74 32 71 112 133 175 158 166 179
3270.0 200 271 256 195 196 179 192 251 231 145
3310.0 150 178 182 227 267 284 175 147 192 154
3350.0 209 256 168 92 183 193 192 247 211 218
3390.0 152 141 127 113 127 112 189 182 85 106
3430.0 211 220 176 219 296 236 236 238 155 123
3470.0 187 240 278 309 217 197 284 271 235 191
3510.0 165 122 64 147 202 244 297 245 233 225
3550.0 207 186 141 143 237 286 226 205 178 131
3590.0 109 133 163 138 196 222 199 197 174 194
3630.0 218 243 269 265 275 270 222 173 175 233
3670.0 324 314 280 296 264 159 135 147 150 164
3710.0 97 82 167 256 214 118 135 237 188 181
3750.0 190 202 231 169 133 51 78 200 269 271
3790.0 258 200 124 231 329 234 188 208 270 253
3830.0 171 213 245 215 168
##END=
